EXPLAIN
TAG	EISPOT
TITLE	LABEL	Potentiostatic EIS	Test Identifier
DATE	LABEL	2025/12/10	Date
TIME	LABEL	7:36:50	Time
NOTES	NOTES	1	Notes...
	
PSTAT	PSTAT	IFC1000-11123	Potentiostat
VDC	POTEN	0.00000E+000	T	DC Voltage (V)
FREQINIT	QUANT	1.00000E+006	Initial Freq. (Hz)
FREQFINAL	QUANT	5.00000E-001	Final Freq. (Hz)
PTSPERDEC	QUANT	1.00000E+001	Points/decade
VAC	QUANT	1.00000E+002	AC Voltage (mV rms)
AREA	QUANT	7.85000E-001	Sample Area (cm^2)
SPEED	SELECTOR	1	Optimize for:
DRIFTCOR	SELECTOR	0	Drift Correction
THD	SELECTOR	0	THD
ZGUESS	QUANT	1.00000E+002	Estimated Z (ohms)
EOC	QUANT	-0.0002165	Open Circuit (V)
SEQUENCER	TOGGLE	TRUE	Run as Sequence
PSTATMODEL	IQUANT	48	Pstat Model
PSTATSECTION	LABEL	IFC1000-11123	Pstat Section
PSTATSERIALNO	LABEL	11123	Pstat Serial Number
CTRLMODE	IQUANT	1	Control Mode
ELECTROMETER	IQUANT	0	RE=0 or CS=1
IESTAB	IQUANT	0	I/E Stability
CASPEED	IQUANT	3	Control Amp Speed
CONVENTION	IQUANT	1	Current Convention
ICHRANGE	IQUANT	2	Ich Range
ICHRANGEMODE	TOGGLE	F	Ich Auto Range
ICHOFFSETENABLE	TOGGLE	T	Ich Offset Enable
ICHOFFSET	QUANT	0	Ich Offset (V)
ICHFILTER	IQUANT	4	Ich Filter
VCHRANGE	IQUANT	2	Vch Range
VCHRANGEMODE	TOGGLE	F	Vch Auto Range
VCHOFFSETENABLE	TOGGLE	T	Vch Offset Enable
VCHOFFSET	QUANT	0	Vch Offset (V)
VCHFILTER	IQUANT	4	Vch Filter
IERANGELOWERLIMIT	IQUANT	4	I/E Range Lower Limit
IERANGEMODE	TOGGLE	F	I/E AutoRange
IERANGE	IQUANT	11	I/E Range
ACHSELECT	IQUANT	0	Ach Select
ACHRANGE	IQUANT	2	Ach Range
ACHOFFSETENABLE	TOGGLE	F	Ach Offset Enable
ACHOFFSET	QUANT	0	Ach Offset (V)
ACHFILTER	IQUANT	1	Ach Filter
SENSECABLEID	IQUANT	14	Sense Cable ID
PWRCABLEID	IQUANT	14	Power Cable ID
DCCALDATE	LABEL	5/23/2025	DC Calibration Date
ACCALDATE	LABEL	4/29/2023	AC Calibration Date
FRAMEWORKVERSION	LABEL	7.10.0	Framework Version
INSTRUMENTVERSION	LABEL	4.72	Instrument Version
COMMVERSION	LABEL	3.10	Communications Version
CPUPLDVERSION	LABEL	1.10	CPU PLD Version
CTRLPLDVERSION	LABEL	0.00	CTRL PLD Version
PSTATPLDVERSION	LABEL	0.00	PSTAT PLD Version
ZCURVE	TABLE
	Pt	Time	Freq	Zreal	Zimag	Zsig	Zmod	Zphz	Idc	Vdc	IERange	Imod	Vmod	Temp
	#	s	Hz	ohm	ohm	V	ohm	°	A	V	#	A	V	°C
	0	4	1000020	314.6476	-63.10215	1	320.9128	-11.34015	-1.002839E-005	0.0008546	9	0.0002489	0.0774762	0
	1	6	794355.5	323.7483	-62.06987	1	329.6447	-10.8532	-9.901401E-006	0.000818	9	0.0004715	0.1520335	0
	2	8	630996.1	332.7899	-60.62458	1	338.2668	-10.3244	-1.003313E-005	0.0008154	9	0.0004131	0.1375807	0
	3	9	501269.5	341.6838	-59.3381	1	346.798	-9.85194	-1.004347E-005	0.0007718	9	0.0003788	0.1299427	0
	4	11	398144.5	350.209	-58.0881	1	354.9938	-9.417734	-1.003322E-005	0.0007538	9	0.0003534	0.1245035	0
	5	13	316230.5	358.8745	-57.11889	1	363.3917	-9.043408	-9.997718E-006	0.0007308	9	0.0003338	0.1206809	0
	6	15	251191.4	367.3518	-55.97925	1	371.5926	-8.664414	-1.006191E-005	0.0007129	9	0.0003163	0.117124	0
	7	17	199628.9	375.8182	-54.85122	1	379.8	-8.303773	-1.008684E-005	0.0007106	9	0.0002989	0.1132433	0
	8	19	158496.1	384.1603	-53.49357	1	387.8669	-7.927349	-1.010299E-005	0.0006913	9	0.0002828	0.1095068	0
	9	20	125918	392.5755	-51.7929	1	395.9773	-7.515689	-1.006713E-005	0.0007096	9	0.0002713	0.1073206	0
	10	22	100019.5	400.9064	-49.754	1	403.9819	-7.074451	3.56467E-007	-7.745408E-005	9	0.0002515	0.1014766	0
	11	24	79511.72	408.8917	-47.1796	1	411.6046	-6.581915	3.645616E-007	-7.624103E-005	9	0.0002541	0.1045575	0
	12	26	63105.47	416.427	-44.33917	1	418.7809	-6.077684	3.459853E-007	-7.779723E-005	9	0.0002446	0.1024321	0
	13	28	50214.84	423.227	-40.88373	1	425.1971	-5.517652	3.31942E-007	-7.869658E-005	9	0.0002383	0.1013072	0
	14	29	39902.34	429.8076	-37.20176	1	431.4146	-4.946875	3.278279E-007	-7.919676E-005	9	0.0002335	0.1007335	0
	15	31	31699.22	434.8481	-33.16217	1	436.1108	-4.361021	3.366854E-007	-8.120999E-005	9	0.0002302	0.1003865	0
	16	33	25136.72	439.2959	-29.13867	1	440.2612	-3.794893	3.357547E-007	-8.458423E-005	9	0.0002277	0.1002336	0
	17	35	19980.47	443.0154	-25.2841	1	443.7363	-3.266484	3.418116E-007	-8.38314E-005	9	0.0002256	0.1001078	0
	18	37	15878.91	445.8873	-21.6814	1	446.4142	-2.783831	3.430173E-007	-8.050667E-005	9	0.0002242	0.1000841	0
	19	38	12597.66	447.9893	-18.43338	1	448.3684	-2.356216	3.536662E-007	-8.197362E-005	9	0.0002231	0.1000267	0
	20	40	10019.53	449.6856	-15.55898	1	449.9547	-1.981625	3.396101E-007	-8.283317E-005	9	0.0002223	0.1000155	0
	21	42	7928.241	450.9445	-13.08651	1	451.1344	-1.662269	1.758796E-006	-0.0001541	9	0.0002217	0.1000277	0
	22	44	6307.871	451.575	-10.99079	1	451.7087	-1.394234	1.761576E-006	-0.0001547	9	0.0002214	0.100005	0
	23	45	5034.722	452.1805	-9.339747	1	452.2769	-1.183271	3.616128E-007	-7.30264E-005	9	0.0002152	0.0970666	0
	24	47	3993.056	452.8324	-7.953333	1	452.9022	-1.006212	3.767282E-007	-7.330008E-005	9	0.000225	0.1017386	0
	25	49	3144.055	453.1197	-6.83212	1	453.1712	-0.863838	3.793007E-007	-7.473695E-005	9	0.0002225	0.1007463	0
	26	51	2519.531	453.4679	-6.04965	1	453.5082	-0.7643294	3.678347E-007	-7.570547E-005	9	0.0002212	0.1002758	0
	27	52	2000.762	453.8261	-5.459901	1	453.859	-0.6892821	3.636693E-007	-7.647829E-005	9	0.0002207	0.1001161	0
	28	54	1580.669	454.0759	-5.058969	1	454.1041	-0.6383196	3.586222E-007	-7.684925E-005	9	0.0002203	0.1000381	0
	29	56	1253.634	454.4548	-4.85186	1	454.4807	-0.6116791	3.679675E-007	-7.7495E-005	9	0.0002201	0.1000234	0
	30	58	1000.702	454.8354	-4.78822	1	454.8606	-0.6031516	3.619743E-007	-7.29484E-005	9	0.0002199	0.0999946	0
	31	60	790.0281	455.2082	-4.876156	1	455.2343	-0.6137247	3.605429E-007	-7.310458E-005	9	0.0002197	0.1000191	0
	32	61	628.811	455.6843	-5.074263	1	455.7126	-0.6379896	3.698598E-007	-7.465006E-005	9	0.0002194	0.0999747	0
	33	63	502.2321	456.2304	-5.454587	1	456.263	-0.6849826	4.246331E-007	-7.347536E-005	9	0.0002106	0.0954457	0
	34	65	400.1524	456.6676	-5.822812	1	456.7047	-0.7305192	4.102596E-007	-7.312268E-005	9	0.0002258	0.1026424	0
	35	66	315.5048	457.4442	-6.31733	1	457.4879	-0.7912076	4.344085E-007	-7.511597E-005	9	0.0002217	0.1011055	0
	36	68	252.0161	457.335	-6.795245	1	457.3855	-0.8512582	3.949544E-007	-7.331884E-005	9	0.0002199	0.100372	0
	37	70	200.3205	458.2506	-7.38966	1	458.3102	-0.9238606	3.986532E-007	-7.50199E-005	9	0.0002185	0.1000272	0
	38	72	158.0056	459.5462	-8.101631	1	459.6176	-1.009999	3.842646E-007	-7.429323E-005	9	0.0002171	0.0997095	0
	39	73	125.558	460.8424	-8.841424	1	460.9272	-1.099105	4.58769E-007	-7.402102E-005	9	0.0002151	0.0991028	0
	40	75	99.734	461.9922	-9.57811	1	462.0915	-1.187697	4.676556E-007	-7.568899E-005	9	0.0002118	0.0978537	0
	41	77	79.44915	463.5395	-10.19456	1	463.6516	-1.259895	-4.702468E-008	-8.063362E-005	9	0.000222	0.1029004	0
	42	79	62.91946	464.9247	-10.82258	1	465.0507	-1.333498	1.847638E-009	-7.742149E-005	9	0.0002151	0.1000115	0
	43	80	49.86702	466.5204	-11.44944	1	466.6609	-1.405882	2.301616E-008	-7.608959E-005	9	0.0002144	0.1000269	0
	44	82	38.42213	468.4415	-12.15742	1	468.5992	-1.486658	7.149848E-008	-7.695697E-005	9	0.0002134	0.1000028	0
	45	84	31.25	469.979	-12.51182	1	470.1455	-1.524973	7.772944E-008	-7.690905E-005	9	0.0002127	0.1000012	0
	46	86	24.93351	471.976	-12.87832	1	472.1516	-1.562983	5.829252E-008	-7.70788E-005	9	0.0002118	0.0999997	0
	47	88	20.03205	473.8063	-13.1247	1	473.988	-1.586719	1.029144E-007	-7.520294E-005	9	0.000211	0.0999993	0
	48	90	15.625	475.8503	-13.23685	1	476.0344	-1.593401	1.812389E-007	-7.65018E-005	9	0.0002101	0.0999998	0
	49	92	12.46675	477.632	-13.22291	1	477.815	-1.585788	2.02553E-007	-7.71247E-005	9	0.0002093	0.0999992	0
	50	94	9.9734	478.5119	-13.08374	1	478.6908	-1.566223	1.056759E-007	-7.525859E-005	9	0.0002089	0.1000003	0
	51	96	7.971939	481.5031	-12.90804	1	481.676	-1.535607	1.960585E-008	-7.510126E-005	9	0.0002076	0.0999991	0
	52	98	6.351626	483.4162	-12.28364	1	483.5723	-1.455577	1.434944E-007	-7.401501E-005	9	0.0002068	0.1000007	0
	53	101	5.013369	482.6451	-11.60905	1	482.7847	-1.377868	3.120265E-007	-7.552697E-005	9	0.0002071	0.0999993	0
	54	103	3.985969	479.276	-10.95395	1	479.4012	-1.309279	6.881689E-007	-7.456002E-005	9	0.0002086	0.1000001	0
	55	106	3.175813	478.8646	-10.41499	1	478.9778	-1.24595	8.777525E-007	-7.410398E-005	9	0.0002088	0.0999994	0
	56	110	2.516103	478.5187	-9.323236	1	478.6096	-1.116183	1.323311E-006	-7.555232E-005	9	0.0002013	0.0964847	0
	57	114	1.99553	477.3668	-8.612863	1	477.4445	-1.033644	1.648852E-006	-7.626129E-005	9	0.0002136	0.1020739	0
	58	118	1.587906	473.4478	-8.413383	1	473.5226	-1.018065	2.590784E-006	-7.576292E-005	9	0.0002129	0.1008569	0
	59	123	1.258052	467.9136	-7.770966	1	467.9781	-0.951463	2.597909E-006	-7.613108E-005	9	0.0002144	0.1003669	0
	60	129	0.997765	464.9293	-7.75244	1	464.994	-0.955287	3.153068E-006	-7.488031E-005	9	0.0002154	0.1001549	0
	61	135	0.7927448	462.0338	-7.761109	1	462.099	-0.962347	3.40431E-006	-7.576655E-005	9	0.0002165	0.1000678	0
	62	142	0.6290258	457.891	-7.936486	1	457.9597	-0.992991	4.249724E-006	-7.536871E-005	9	0.0002184	0.1000319	0
	63	151	0.4988825	451.8723	-7.444131	1	451.9336	-0.9438036	4.481229E-006	-7.647532E-005	9	0.0002213	0.1000157	0
	64	160	0.3985969	448.9594	-7.793382	1	449.0271	-0.994484	5.833914E-006	-7.681915E-005	9	0.0002227	0.1000082	0
