EXPLAIN
TAG	EISPOT
TITLE	LABEL	Potentiostatic EIS	Test Identifier
DATE	LABEL	2025/12/10	Date
TIME	LABEL	2:33:02	Time
NOTES	NOTES	1	Notes...
	
PSTAT	PSTAT	IFC1000-11123	Potentiostat
VDC	POTEN	0.00000E+000	T	DC Voltage (V)
FREQINIT	QUANT	1.00000E+006	Initial Freq. (Hz)
FREQFINAL	QUANT	5.00000E-001	Final Freq. (Hz)
PTSPERDEC	QUANT	1.00000E+001	Points/decade
VAC	QUANT	1.00000E+002	AC Voltage (mV rms)
AREA	QUANT	7.85000E-001	Sample Area (cm^2)
SPEED	SELECTOR	1	Optimize for:
DRIFTCOR	SELECTOR	0	Drift Correction
THD	SELECTOR	0	THD
ZGUESS	QUANT	1.00000E+002	Estimated Z (ohms)
EOC	QUANT	-0.0002179	Open Circuit (V)
SEQUENCER	TOGGLE	TRUE	Run as Sequence
PSTATMODEL	IQUANT	48	Pstat Model
PSTATSECTION	LABEL	IFC1000-11123	Pstat Section
PSTATSERIALNO	LABEL	11123	Pstat Serial Number
CTRLMODE	IQUANT	1	Control Mode
ELECTROMETER	IQUANT	0	RE=0 or CS=1
IESTAB	IQUANT	0	I/E Stability
CASPEED	IQUANT	3	Control Amp Speed
CONVENTION	IQUANT	1	Current Convention
ICHRANGE	IQUANT	2	Ich Range
ICHRANGEMODE	TOGGLE	F	Ich Auto Range
ICHOFFSETENABLE	TOGGLE	T	Ich Offset Enable
ICHOFFSET	QUANT	0	Ich Offset (V)
ICHFILTER	IQUANT	4	Ich Filter
VCHRANGE	IQUANT	2	Vch Range
VCHRANGEMODE	TOGGLE	F	Vch Auto Range
VCHOFFSETENABLE	TOGGLE	T	Vch Offset Enable
VCHOFFSET	QUANT	0	Vch Offset (V)
VCHFILTER	IQUANT	4	Vch Filter
IERANGELOWERLIMIT	IQUANT	4	I/E Range Lower Limit
IERANGEMODE	TOGGLE	F	I/E AutoRange
IERANGE	IQUANT	11	I/E Range
ACHSELECT	IQUANT	0	Ach Select
ACHRANGE	IQUANT	2	Ach Range
ACHOFFSETENABLE	TOGGLE	F	Ach Offset Enable
ACHOFFSET	QUANT	0	Ach Offset (V)
ACHFILTER	IQUANT	1	Ach Filter
SENSECABLEID	IQUANT	14	Sense Cable ID
PWRCABLEID	IQUANT	14	Power Cable ID
DCCALDATE	LABEL	5/23/2025	DC Calibration Date
ACCALDATE	LABEL	4/29/2023	AC Calibration Date
FRAMEWORKVERSION	LABEL	7.10.0	Framework Version
INSTRUMENTVERSION	LABEL	4.72	Instrument Version
COMMVERSION	LABEL	3.10	Communications Version
CPUPLDVERSION	LABEL	1.10	CPU PLD Version
CTRLPLDVERSION	LABEL	0.00	CTRL PLD Version
PSTATPLDVERSION	LABEL	0.00	PSTAT PLD Version
ZCURVE	TABLE
	Pt	Time	Freq	Zreal	Zimag	Zsig	Zmod	Zphz	Idc	Vdc	IERange	Imod	Vmod	Temp
	#	s	Hz	ohm	ohm	V	ohm	°	A	V	#	A	V	°C
	0	4	1000020	324.8093	-63.77126	1	331.0103	-11.10785	-9.747901E-006	0.0008264	9	0.0002433	0.0781003	0
	1	6	794355.5	333.9969	-62.36399	1	339.7693	-10.57649	-9.746829E-006	0.0007931	9	0.0004563	0.1516581	0
	2	7	630996.1	342.9486	-60.57394	1	348.257	-10.01667	-9.826007E-006	0.0007695	9	0.0004015	0.1376766	0
	3	9	501269.5	351.5123	-59.07195	1	356.4413	-9.53947	-9.827463E-006	0.0007503	9	0.0003678	0.1296926	0
	4	11	398144.5	359.9435	-57.66595	1	364.5335	-9.101917	-9.858893E-006	0.0007243	9	0.000344	0.1244672	0
	5	13	316230.5	368.1004	-56.44504	1	372.4029	-8.71791	-9.973537E-006	0.0007124	9	0.0003259	0.1207286	0
	6	15	251191.4	376.6633	-55.12824	1	380.6762	-8.326659	-9.943706E-006	0.0007022	9	0.0003073	0.116571	0
	7	16	199628.9	385.0393	-53.95099	1	388.8007	-7.97625	-1.002879E-005	0.0006894	9	0.0002924	0.1134309	0
	8	18	158496.1	393.4723	-52.27537	1	396.9297	-7.567801	-1.002561E-005	0.0006754	9	0.0002766	0.1096117	0
	9	20	125918	401.739	-50.66406	1	404.9211	-7.187734	-1.000662E-005	0.0006918	9	0.0002646	0.1070412	0
	10	22	100019.5	409.8102	-48.27859	1	412.6442	-6.718887	3.130596E-007	-7.367553E-005	9	0.0002461	0.1014509	0
	11	24	79511.72	417.6462	-45.51682	1	420.1192	-6.219785	3.114152E-007	-7.63245E-005	9	0.000249	0.1045455	0
	12	25	63105.47	424.757	-42.42205	1	426.8702	-5.703428	3.050081E-007	-7.85166E-005	9	0.00024	0.1024137	0
	13	27	50214.84	431.2514	-38.83639	1	432.9966	-5.145896	3.015668E-007	-7.90651E-005	9	0.000234	0.1013159	0
	14	29	39902.34	436.9762	-34.96524	1	438.3728	-4.574853	2.992731E-007	-8.165141E-005	9	0.0002297	0.100713	0
	15	31	31699.22	441.8526	-30.97014	1	442.9366	-4.009394	3.022182E-007	-8.254481E-005	9	0.0002267	0.1004007	0
	16	33	25136.72	445.9138	-27.03478	1	446.7325	-3.469472	3.0168E-007	-8.376292E-005	9	0.0002243	0.10022	0
	17	34	19980.47	449.1424	-23.39263	1	449.7512	-2.981436	3.079318E-007	-8.266812E-005	9	0.0002226	0.1001284	0
	18	36	15878.91	451.7054	-19.99304	1	452.1477	-2.534327	3.094619E-007	-8.234533E-005	9	0.0002213	0.1000739	0
	19	38	12597.66	453.713	-16.98134	1	454.0307	-2.143437	3.150636E-007	-8.188572E-005	9	0.0002203	0.1000199	0
	20	40	10019.53	455.2393	-14.39188	1	455.4667	-1.810739	3.164942E-007	-7.952028E-005	9	0.0002197	0.1000448	0
	21	42	7928.241	456.3771	-12.18171	1	456.5397	-1.528987	1.724767E-006	-0.000156	9	0.000219	0.0999937	0
	22	43	6307.871	457.3155	-10.43561	1	457.4346	-1.307221	1.724537E-006	-0.0001573	9	0.0002186	0.1000016	0
	23	45	5034.722	457.9807	-9.04074	1	458.0699	-1.130897	3.348343E-007	-7.577403E-005	9	0.0002124	0.0970636	0
	24	47	3993.056	458.5479	-7.927371	1	458.6164	-0.99043	3.480911E-007	-7.507941E-005	9	0.0002222	0.1017666	0
	25	49	3144.055	459.0569	-7.081804	1	459.1115	-0.8838237	3.459077E-007	-7.780641E-005	9	0.0002196	0.1007449	0
	26	50	2519.531	459.3825	-6.542733	1	459.4291	-0.8159772	3.489695E-007	-7.761177E-005	9	0.0002184	0.1002765	0
	27	52	2000.762	459.8111	-6.21917	1	459.8531	-0.7749063	3.523573E-007	-7.627299E-005	9	0.0002178	0.1001164	0
	28	54	1580.669	460.2453	-6.100788	1	460.2858	-0.7594405	3.631133E-007	-7.607706E-005	9	0.0002174	0.1000376	0
	29	56	1253.634	460.8875	-6.190829	1	460.9291	-0.769574	3.555626E-007	-7.593149E-005	9	0.000217	0.100022	0
	30	57	1000.702	461.4167	-6.431058	1	461.4615	-0.798516	3.417838E-007	-7.662491E-005	9	0.0002168	0.1000245	0
	31	59	790.0281	462.0262	-6.827849	1	462.0767	-0.8466586	3.426171E-007	-7.461074E-005	9	0.0002164	0.0999848	0
	32	61	628.811	462.716	-7.357533	1	462.7745	-0.9109691	3.342836E-007	-7.82666E-005	9	0.000216	0.0999743	0
	33	63	502.2321	463.4488	-8.063295	1	463.5189	-0.996758	3.897072E-007	-7.519466E-005	9	0.0002073	0.0954435	0
	34	64	400.1524	464.2889	-8.762198	1	464.3716	-1.081175	3.731207E-007	-7.599895E-005	9	0.0002221	0.102639	0
	35	66	315.5048	465.5262	-9.64886	1	465.6261	-1.187387	4.091971E-007	-7.484361E-005	9	0.0002178	0.1011342	0
	36	68	252.0161	466.7157	-10.52877	1	466.8344	-1.292333	3.948758E-007	-7.576123E-005	9	0.0002154	0.1003683	0
	37	69	200.3205	468.1912	-11.49489	1	468.3323	-1.406427	4.026349E-007	-7.582037E-005	9	0.0002138	0.1000243	0
	38	71	158.0056	469.8288	-12.50926	1	469.9953	-1.525148	4.022448E-007	-7.38829E-005	9	0.0002122	0.0996753	0
	39	73	125.558	471.6328	-13.53962	1	471.8271	-1.644393	4.283536E-007	-7.529242E-005	9	0.0002102	0.0991272	0
	40	75	99.734	473.5986	-14.51204	1	473.8209	-1.755113	4.574143E-007	-7.585878E-005	9	0.0002066	0.0978461	0
	41	76	79.44915	475.6983	-15.38202	1	475.947	-1.852051	3.894343E-009	-7.773726E-005	9	0.0002163	0.1029112	0
	42	78	62.91946	478.1032	-16.19465	1	478.3774	-1.940022	4.073644E-008	-7.675862E-005	9	0.0002091	0.1000116	0
	43	80	49.86702	480.6371	-16.91796	1	480.9347	-2.015924	7.760738E-008	-7.794295E-005	9	0.000208	0.1000294	0
	44	82	38.42213	483.4845	-17.57395	1	483.8038	-2.0817	1.21095E-007	-7.605526E-005	9	0.0002067	0.1000024	0
	45	84	31.25	485.8359	-17.90915	1	486.1659	-2.111113	1.636006E-007	-7.638102E-005	9	0.0002057	0.1000003	0
	46	85	24.93351	488.1539	-18.07222	1	488.4883	-2.120211	1.812465E-007	-7.784987E-005	9	0.0002047	0.1000003	0
	47	87	20.03205	490.4602	-18.0786	1	490.7932	-2.110995	2.89284E-007	-7.76997E-005	9	0.0002038	0.099999	0
	48	89	15.625	491.0114	-17.21921	1	491.3132	-2.008474	1.183276E-007	-7.678961E-005	9	0.0002035	0.0999988	0
	49	91	12.46675	484.985	-16.19377	1	485.2553	-1.91241	4.851976E-007	-7.646441E-005	9	0.0002061	0.1000002	0
	50	93	9.9734	486.7812	-15.84376	1	487.039	-1.864206	1.078979E-006	-7.641481E-005	9	0.0002053	0.1000003	0
	51	96	7.971939	487.3014	-15.08526	1	487.5348	-1.773124	1.09329E-006	-7.68594E-005	9	0.0002051	0.0999989	0
	52	98	6.351626	487.7206	-14.40372	1	487.9332	-1.691609	1.413573E-006	-7.623766E-005	9	0.0002049	0.1000003	0
	53	100	5.013369	486.7092	-13.40988	1	486.8939	-1.578222	1.990657E-006	-7.578792E-005	9	0.0002054	0.0999996	0
	54	103	3.985969	485.7757	-12.71561	1	485.9421	-1.499425	2.584314E-006	-7.619356E-005	9	0.0002058	0.0999999	0
	55	106	3.175813	482.791	-11.97375	1	482.9395	-1.420708	3.440871E-006	-7.559473E-005	9	0.0002071	0.1	0
	56	109	2.516103	479.6669	-11.35715	1	479.8013	-1.356348	4.543776E-006	-7.77237E-005	9	0.0002008	0.096487	0
	57	113	1.99553	476.6569	-10.83886	1	476.7801	-1.302643	5.029601E-006	-7.550564E-005	9	0.0002139	0.1020733	0
	58	118	1.587906	472.0866	-11.03593	1	472.2155	-1.339155	6.083741E-006	-7.684866E-005	9	0.0002135	0.1008557	0
	59	123	1.258052	465.9001	-10.19944	1	466.0117	-1.254113	6.262863E-006	-7.753482E-005	9	0.0002153	0.1003672	0
	60	129	0.997765	462.4022	-9.8373	1	462.5068	-1.218746	7.447502E-006	-7.783491E-005	9	0.0002165	0.1001547	0
	61	136	0.7927448	457.123	-9.92513	1	457.2308	-1.243819	7.940535E-006	-7.765697E-005	9	0.0002188	0.1000674	0
	62	144	0.6290258	451.9473	-9.83799	1	452.0544	-1.247018	8.759983E-006	-7.728016E-005	9	0.0002213	0.1000319	0
	63	154	0.4988825	443.8026	-10.56968	1	443.9285	-1.364309	8.810472E-006	-7.742323E-005	9	0.0002253	0.1000162	0
	64	166	0.3985969	438.6073	-10.32205	1	438.7287	-1.348133	9.551853E-006	-7.747664E-005	9	0.0002279	0.100008	0
