EXPLAIN
TAG	EISPOT
TITLE	LABEL	Potentiostatic EIS	Test Identifier
DATE	LABEL	2025/12/9	Date
TIME	LABEL	21:29:05	Time
NOTES	NOTES	1	Notes...
	
PSTAT	PSTAT	IFC1000-11123	Potentiostat
VDC	POTEN	0.00000E+000	T	DC Voltage (V)
FREQINIT	QUANT	1.00000E+006	Initial Freq. (Hz)
FREQFINAL	QUANT	5.00000E-001	Final Freq. (Hz)
PTSPERDEC	QUANT	1.00000E+001	Points/decade
VAC	QUANT	1.00000E+002	AC Voltage (mV rms)
AREA	QUANT	7.85000E-001	Sample Area (cm^2)
SPEED	SELECTOR	1	Optimize for:
DRIFTCOR	SELECTOR	0	Drift Correction
THD	SELECTOR	0	THD
ZGUESS	QUANT	1.00000E+002	Estimated Z (ohms)
EOC	QUANT	-0.0002759	Open Circuit (V)
SEQUENCER	TOGGLE	TRUE	Run as Sequence
PSTATMODEL	IQUANT	48	Pstat Model
PSTATSECTION	LABEL	IFC1000-11123	Pstat Section
PSTATSERIALNO	LABEL	11123	Pstat Serial Number
CTRLMODE	IQUANT	1	Control Mode
ELECTROMETER	IQUANT	0	RE=0 or CS=1
IESTAB	IQUANT	0	I/E Stability
CASPEED	IQUANT	3	Control Amp Speed
CONVENTION	IQUANT	1	Current Convention
ICHRANGE	IQUANT	2	Ich Range
ICHRANGEMODE	TOGGLE	F	Ich Auto Range
ICHOFFSETENABLE	TOGGLE	T	Ich Offset Enable
ICHOFFSET	QUANT	0	Ich Offset (V)
ICHFILTER	IQUANT	4	Ich Filter
VCHRANGE	IQUANT	2	Vch Range
VCHRANGEMODE	TOGGLE	F	Vch Auto Range
VCHOFFSETENABLE	TOGGLE	T	Vch Offset Enable
VCHOFFSET	QUANT	0	Vch Offset (V)
VCHFILTER	IQUANT	4	Vch Filter
IERANGELOWERLIMIT	IQUANT	4	I/E Range Lower Limit
IERANGEMODE	TOGGLE	F	I/E AutoRange
IERANGE	IQUANT	11	I/E Range
ACHSELECT	IQUANT	0	Ach Select
ACHRANGE	IQUANT	2	Ach Range
ACHOFFSETENABLE	TOGGLE	F	Ach Offset Enable
ACHOFFSET	QUANT	0	Ach Offset (V)
ACHFILTER	IQUANT	1	Ach Filter
SENSECABLEID	IQUANT	14	Sense Cable ID
PWRCABLEID	IQUANT	14	Power Cable ID
DCCALDATE	LABEL	5/23/2025	DC Calibration Date
ACCALDATE	LABEL	4/29/2023	AC Calibration Date
FRAMEWORKVERSION	LABEL	7.10.0	Framework Version
INSTRUMENTVERSION	LABEL	4.72	Instrument Version
COMMVERSION	LABEL	3.10	Communications Version
CPUPLDVERSION	LABEL	1.10	CPU PLD Version
CTRLPLDVERSION	LABEL	0.00	CTRL PLD Version
PSTATPLDVERSION	LABEL	0.00	PSTAT PLD Version
ZCURVE	TABLE
	Pt	Time	Freq	Zreal	Zimag	Zsig	Zmod	Zphz	Idc	Vdc	IERange	Imod	Vmod	Temp
	#	s	Hz	ohm	ohm	V	ohm	°	A	V	#	A	V	°C
	0	4	1000020	320.4973	-49.27729	1	324.2634	-8.740927	-9.917589E-006	0.0008277	9	0.0002466	0.0775496	0
	1	6	794355.5	327.007	-47.19082	1	330.3945	-8.21174	-9.580696E-006	0.0007833	9	0.0004694	0.1516908	0
	2	8	630996.1	333.1972	-44.76519	1	336.1909	-7.651894	-9.659416E-006	0.0007806	9	0.0004143	0.1371165	0
	3	9	501269.5	339.1701	-42.76746	1	341.8558	-7.186749	-9.67318E-006	0.0007395	9	0.000383	0.1295151	0
	4	11	398144.5	344.9788	-41.13432	1	347.4225	-6.799688	-9.731761E-006	0.0007181	9	0.0003609	0.1244396	0
	5	13	316230.5	350.8477	-39.63173	1	353.079	-6.444808	-9.741168E-006	0.0006954	9	0.0003438	0.1207732	0
	6	15	251191.4	356.5723	-38.0178	1	358.5933	-6.085894	-9.84811E-006	0.0006875	9	0.0003264	0.1166431	0
	7	16	199628.9	362.2268	-36.30738	1	364.0419	-5.723856	-9.809661E-006	0.0006618	9	0.0003124	0.1134622	0
	8	18	158496.1	367.8788	-34.33492	1	369.4776	-5.332092	-9.763757E-006	0.0006445	9	0.0002983	0.1100481	0
	9	20	125918	373.2269	-32.23753	1	374.6165	-4.936679	-9.806569E-006	0.0006683	9	0.0002866	0.1072578	0
	10	22	100019.5	378.088	-29.6765	1	379.2508	-4.488001	3.282154E-007	-7.783563E-005	9	0.0002683	0.1016373	0
	11	24	79511.72	382.6016	-26.94982	1	383.5496	-4.029164	3.350178E-007	-7.976801E-005	9	0.0002731	0.1046825	0
	12	25	63105.47	386.3136	-24.24728	1	387.0738	-3.591505	3.551054E-007	-7.755376E-005	9	0.000265	0.1025413	0
	13	27	50214.84	389.5298	-21.43929	1	390.1193	-3.150318	3.312905E-007	-8.245808E-005	9	0.0002599	0.101389	0
	14	29	39902.34	392.1764	-18.73116	1	392.6235	-2.734487	3.327783E-007	-8.240395E-005	9	0.0002567	0.1007984	0
	15	31	31699.22	394.2468	-16.20623	1	394.5798	-2.353922	3.321292E-007	-8.4156E-005	9	0.0002546	0.1004443	0
	16	33	25136.72	395.919	-13.92971	1	396.1639	-2.01502	3.409001E-007	-8.494186E-005	9	0.0002531	0.1002658	0
	17	34	19980.47	397.1794	-12.0131	1	397.3611	-1.732442	3.423331E-007	-8.498231E-005	9	0.000252	0.1001355	0
	18	36	15878.91	398.1544	-10.39603	1	398.2901	-1.495684	3.311295E-007	-8.535141E-005	9	0.0002513	0.1001014	0
	19	38	12597.66	398.921	-9.103935	1	399.0248	-1.307343	3.421387E-007	-8.429645E-005	9	0.0002508	0.1000602	0
	20	40	10019.53	399.5251	-8.113605	1	399.6075	-1.16341	3.410294E-007	-8.369051E-005	9	0.0002503	0.1000267	0
	21	41	7928.241	400.0811	-7.397566	1	400.1495	-1.059288	1.755317E-006	-0.0001591	9	0.00025	0.1000184	0
	22	43	6307.871	400.5307	-6.960102	1	400.5912	-0.99554	1.750084E-006	-0.0001564	9	0.0002496	0.0999924	0
	23	45	5034.722	400.9666	-6.775039	1	401.0238	-0.968021	3.854198E-007	-7.737207E-005	9	0.0002426	0.0970596	0
	24	47	3993.056	401.4174	-6.79943	1	401.475	-0.970415	3.871936E-007	-7.655049E-005	9	0.0002538	0.1017638	0
	25	48	3144.055	401.9514	-7.045668	1	402.0131	-1.004215	3.809405E-007	-7.914205E-005	9	0.0002508	0.1007403	0
	26	50	2519.531	402.5042	-7.478034	1	402.5736	-1.064363	3.824609E-007	-7.954321E-005	9	0.0002492	0.1002724	0
	27	52	2000.762	403.1714	-8.1251	1	403.2532	-1.154524	3.892346E-007	-7.950433E-005	9	0.0002484	0.1001432	0
	28	54	1580.669	403.9793	-8.998609	1	404.0796	-1.276048	4.079379E-007	-7.84471E-005	9	0.0002476	0.1000351	0
	29	55	1253.634	404.9323	-10.04242	1	405.0568	-1.420658	4.021406E-007	-7.957953E-005	9	0.000247	0.100019	0
	30	57	1000.702	406.0412	-11.25356	1	406.1971	-1.587564	3.875189E-007	-7.80659E-005	9	0.0002462	0.0999901	0
	31	59	790.0281	407.4086	-12.71566	1	407.607	-1.787682	3.894079E-007	-7.830239E-005	9	0.0002454	0.1000131	0
	32	61	628.811	408.9868	-14.29761	1	409.2366	-2.002165	3.925381E-007	-7.959286E-005	9	0.0002443	0.0999694	0
	33	62	502.2321	410.7811	-16.0706	1	411.0953	-2.240387	4.414469E-007	-7.802583E-005	9	0.0002337	0.0954416	0
	34	64	400.1524	412.9197	-17.89396	1	413.3073	-2.481372	4.449753E-007	-7.879199E-005	9	0.0002495	0.1026354	0
	35	66	315.5048	415.5977	-19.92397	1	416.075	-2.744688	4.54742E-007	-7.820243E-005	9	0.0002438	0.1011298	0
	36	67	252.0161	418.5104	-21.87769	1	419.0819	-2.992421	4.437486E-007	-7.919932E-005	9	0.00024	0.1003949	0
	37	69	200.3205	421.8941	-23.839	1	422.567	-3.234042	4.589176E-007	-7.851294E-005	9	0.000237	0.1000169	0
	38	71	158.0056	425.8157	-25.75778	1	426.5941	-3.461629	4.675929E-007	-7.960881E-005	9	0.0002338	0.0996656	0
	39	72	125.558	430.0304	-27.43115	1	430.9044	-3.649888	4.836821E-007	-7.650582E-005	9	0.0002301	0.0991166	0
	40	74	99.734	434.6035	-28.80975	1	435.5574	-3.792573	5.011408E-007	-7.712666E-005	9	0.0002247	0.0978603	0
	41	76	79.44915	439.5638	-29.8101	1	440.5734	-3.879714	1.368649E-007	-7.970587E-005	9	0.0002336	0.1029136	0
	42	78	62.91946	444.7458	-30.38312	1	445.7824	-3.908129	2.078988E-007	-7.829248E-005	9	0.0002244	0.1000126	0
	43	79	49.86702	449.7703	-30.5366	1	450.8058	-3.884065	2.412422E-007	-8.063995E-005	9	0.0002219	0.1000283	0
	44	81	38.42213	455.0887	-30.12494	1	456.0847	-3.787212	3.231543E-007	-7.946483E-005	9	0.0002193	0.1000023	0
	45	83	31.25	458.8122	-29.29546	1	459.7465	-3.653414	4.712492E-007	-7.930071E-005	9	0.0002175	0.100001	0
	46	85	24.93351	462.4499	-27.98149	1	463.2957	-3.462579	6.72389E-007	-8.116229E-005	9	0.0002158	0.0999993	0
	47	87	20.03205	464.7578	-26.28777	1	465.5006	-3.237332	1.158136E-006	-8.101109E-005	9	0.0002148	0.0999993	0
	48	89	15.625	466.3179	-23.84584	1	466.9272	-2.927352	2.069343E-006	-8.18035E-005	9	0.0002142	0.0999999	0
	49	91	12.46675	465.7791	-21.4011	1	466.2705	-2.630713	3.243462E-006	-8.01763E-005	9	0.0002145	0.0999994	0
	50	93	9.9734	463.8974	-19.00167	1	464.2864	-2.345577	4.799312E-006	-7.963482E-005	9	0.0002154	0.0999995	0
	51	95	7.971939	458.8701	-16.56536	1	459.169	-2.067498	6.369387E-006	-8.038765E-005	9	0.0002178	0.0999999	0
	52	97	6.351626	448.8672	-14.72188	1	449.1086	-1.878505	9.071407E-006	-8.008783E-005	9	0.0002227	0.0999997	0
	53	100	5.013369	436.6328	-13.40991	1	436.8387	-1.759121	1.084828E-005	-8.073002E-005	9	0.0002289	0.1	0
	54	103	3.985969	426.3133	-12.76356	1	426.5043	-1.714888	1.270758E-005	-8.090532E-005	9	0.0002345	0.0999993	0
	55	107	3.175813	420.257	-12.43946	1	420.4411	-1.69544	1.438838E-005	-7.950276E-005	9	0.0002378	0.0999999	0
	56	111	2.516103	412.357	-11.98247	1	412.5311	-1.66446	1.562554E-005	-8.091639E-005	9	0.0002335	0.0964886	0
	57	116	1.99553	405.5347	-11.55619	1	405.6993	-1.632269	1.840841E-005	-8.168124E-005	9	0.0002514	0.102073	0
	58	122	1.587906	396.0099	-11.40592	1	396.1741	-1.649783	1.799666E-005	-8.012558E-005	9	0.0002545	0.1008565	0
	59	129	1.258052	389.9647	-11.17569	1	390.1248	-1.641546	1.963554E-005	-7.994764E-005	9	0.0002572	0.1003666	0
	60	138	0.997765	385.7899	-11.24114	1	385.9536	-1.669011	2.103788E-005	-8.034357E-005	9	0.0002595	0.100155	0
	61	145	0.7927448	381.4554	-11.82494	1	381.6386	-1.775574	2.157092E-005	-8.085527E-005	9	0.0002622	0.1000674	0
	62	153	0.6290258	380.2488	-12.40377	1	380.451	-1.868334	2.308129E-005	-8.129042E-005	9	0.0002629	0.1000318	0
	63	163	0.4988825	375.3848	-12.79646	1	375.6029	-1.952395	2.44588E-005	-8.039609E-005	9	0.0002663	0.1000158	0
	64	175	0.3985969	369.704	-11.95712	1	369.8973	-1.852438	2.485378E-005	-8.001571E-005	9	0.0002704	0.1000082	0
