EXPLAIN
TAG	EISPOT
TITLE	LABEL	Potentiostatic EIS	Test Identifier
DATE	LABEL	2025/12/24	Date
TIME	LABEL	0:29:03	Time
NOTES	NOTES	1	Notes...
	
PSTAT	PSTAT	IFC1000-11123	Potentiostat
VDC	POTEN	0.00000E+000	T	DC Voltage (V)
FREQINIT	QUANT	1.00000E+006	Initial Freq. (Hz)
FREQFINAL	QUANT	5.00000E-001	Final Freq. (Hz)
PTSPERDEC	QUANT	1.00000E+001	Points/decade
VAC	QUANT	1.00000E+002	AC Voltage (mV rms)
AREA	QUANT	7.85000E-001	Sample Area (cm^2)
SPEED	SELECTOR	1	Optimize for:
DRIFTCOR	SELECTOR	0	Drift Correction
THD	SELECTOR	0	THD
ZGUESS	QUANT	1.00000E+002	Estimated Z (ohms)
EOC	QUANT	-8.456884E-006	Open Circuit (V)
SEQUENCER	TOGGLE	TRUE	Run as Sequence
PSTATMODEL	IQUANT	48	Pstat Model
PSTATSECTION	LABEL	IFC1000-11123	Pstat Section
PSTATSERIALNO	LABEL	11123	Pstat Serial Number
CTRLMODE	IQUANT	1	Control Mode
ELECTROMETER	IQUANT	0	RE=0 or CS=1
IESTAB	IQUANT	0	I/E Stability
CASPEED	IQUANT	3	Control Amp Speed
CONVENTION	IQUANT	1	Current Convention
ICHRANGE	IQUANT	2	Ich Range
ICHRANGEMODE	TOGGLE	F	Ich Auto Range
ICHOFFSETENABLE	TOGGLE	T	Ich Offset Enable
ICHOFFSET	QUANT	0	Ich Offset (V)
ICHFILTER	IQUANT	4	Ich Filter
VCHRANGE	IQUANT	2	Vch Range
VCHRANGEMODE	TOGGLE	F	Vch Auto Range
VCHOFFSETENABLE	TOGGLE	T	Vch Offset Enable
VCHOFFSET	QUANT	0	Vch Offset (V)
VCHFILTER	IQUANT	4	Vch Filter
IERANGELOWERLIMIT	IQUANT	4	I/E Range Lower Limit
IERANGEMODE	TOGGLE	F	I/E AutoRange
IERANGE	IQUANT	11	I/E Range
ACHSELECT	IQUANT	0	Ach Select
ACHRANGE	IQUANT	2	Ach Range
ACHOFFSETENABLE	TOGGLE	F	Ach Offset Enable
ACHOFFSET	QUANT	0	Ach Offset (V)
ACHFILTER	IQUANT	1	Ach Filter
SENSECABLEID	IQUANT	14	Sense Cable ID
PWRCABLEID	IQUANT	14	Power Cable ID
DCCALDATE	LABEL	5/23/2025	DC Calibration Date
ACCALDATE	LABEL	4/29/2023	AC Calibration Date
FRAMEWORKVERSION	LABEL	7.10.0	Framework Version
INSTRUMENTVERSION	LABEL	4.72	Instrument Version
COMMVERSION	LABEL	3.10	Communications Version
CPUPLDVERSION	LABEL	1.10	CPU PLD Version
CTRLPLDVERSION	LABEL	0.00	CTRL PLD Version
PSTATPLDVERSION	LABEL	0.00	PSTAT PLD Version
ZCURVE	TABLE
	Pt	Time	Freq	Zreal	Zimag	Zsig	Zmod	Zphz	Idc	Vdc	IERange	Imod	Vmod	Temp
	#	s	Hz	ohm	ohm	V	ohm	°	A	V	#	A	V	°C
	0	4	1000020	122.1585	-3.15017	1	122.1991	-1.477192	-1.230277E-005	0.0002667	10	0.0008519	0.0999556	0
	1	6	794355.5	123.2635	-4.250698	1	123.3367	-1.975042	-1.210017E-005	0.0002741	10	0.0012595	0.1506834	0
	2	8	630996.1	124.4758	-5.206962	1	124.5847	-2.395349	-1.253162E-005	0.0002633	10	0.0011162	0.1359032	0
	3	9	501269.5	125.765	-6.020152	1	125.909	-2.740558	-1.275809E-005	0.000255	10	0.0010362	0.1281839	0
	4	11	398144.5	127.1085	-6.726089	1	127.2864	-3.029045	-1.304524E-005	0.000254	10	0.0009783	0.122795	0
	5	13	316230.5	128.4949	-7.280398	1	128.701	-3.242858	-1.313233E-005	0.0002375	10	0.0009362	0.1191376	0
	6	15	251191.4	129.9392	-7.703175	1	130.1673	-3.39269	-1.320805E-005	0.0002308	10	0.0008887	0.1146124	0
	7	16	199628.9	131.4229	-7.989825	1	131.6656	-3.479001	-1.342964E-005	0.0002091	10	0.0008509	0.1111899	0
	8	18	158496.1	132.958	-8.142672	1	133.2071	-3.504557	-1.347548E-005	0.0002256	10	0.0008187	0.1083869	0
	9	20	125918	134.4961	-8.161535	1	134.7435	-3.472583	-1.345236E-005	0.0002161	10	0.0007877	0.1056261	0
	10	22	100019.5	135.9915	-7.990608	1	136.226	-3.362728	-2.268742E-006	0.0000988	10	0.0007444	0.1009943	0
	11	24	79511.72	137.397	-7.726801	1	137.6141	-3.218754	-2.365067E-006	0.0000952	10	0.0007593	0.104214	0
	12	25	63105.47	138.7534	-7.314779	1	138.9461	-3.017715	-2.415963E-006	9.341478E-005	10	0.0007371	0.1022418	0
	13	27	50214.84	139.979	-6.792103	1	140.1437	-2.777944	-2.41389E-006	9.08958E-005	10	0.0007228	0.1011841	0
	14	29	39902.34	141.0684	-6.182018	1	141.2038	-2.509258	-2.289739E-006	9.079503E-005	10	0.0007135	0.1006827	0
	15	31	31699.22	142.0027	-5.525877	1	142.1102	-2.228477	-2.297796E-006	8.991081E-005	10	0.0007066	0.1003758	0
	16	33	25136.72	142.7674	-4.844981	1	142.8496	-1.943654	-2.159192E-006	8.958064E-005	10	0.0007018	0.1002167	0
	17	34	19980.47	143.3866	-4.200624	1	143.4481	-1.678045	-2.178217E-006	8.895423E-005	10	0.0006981	0.1001187	0
	18	36	15878.91	143.8652	-3.594936	1	143.9101	-1.431422	-2.212552E-006	8.910002E-005	10	0.0006954	0.100063	0
	19	38	12597.66	144.2487	-3.043692	1	144.2808	-1.208779	-2.198177E-006	9.057752E-005	10	0.0006935	0.1000453	0
	20	40	10019.53	144.5454	-2.555712	1	144.568	-1.012943	-2.230893E-006	9.238621E-005	10	0.0006918	0.1000058	0
	21	41	7928.241	144.7601	-2.13945	1	144.7759	-0.8467284	-3.47065E-007	0.0001458	10	0.0006909	0.1000209	0
	22	43	6307.871	144.9264	-1.788915	1	144.9375	-0.7072008	-4.086651E-007	0.0001478	10	0.0006902	0.1000278	0
	23	45	5034.722	145.0445	-1.505097	1	145.0523	-0.5945251	-1.939424E-006	0.0001195	10	0.0006708	0.0970587	0
	24	47	3993.056	145.1374	-1.257738	1	145.1429	-0.4965035	-1.953581E-006	0.0001198	10	0.0007021	0.1017618	0
	25	48	3144.055	145.2135	-1.051493	1	145.2173	-0.4148725	-1.938517E-006	0.0001178	10	0.0006943	0.1007401	0
	26	50	2519.531	145.2737	-0.8963283	1	145.2764	-0.3535065	-1.889215E-006	0.0001181	10	0.0006906	0.1002713	0
	27	52	2000.762	145.3269	-0.7674044	1	145.329	-0.3025497	-1.860487E-006	0.0001183	10	0.0006891	0.1001104	0
	28	54	1580.669	145.3777	-0.6603079	1	145.3792	-0.2602366	-1.865842E-006	0.0001187	10	0.0006882	0.1000334	0
	29	55	1253.634	145.4268	-0.5812668	1	145.428	-0.2290083	-1.903006E-006	0.0001196	10	0.0006878	0.1000181	0
	30	57	1000.702	145.4732	-0.5208331	1	145.4741	-0.2051334	-1.942763E-006	0.0001193	10	0.0006876	0.1000206	0
	31	59	790.0281	145.5199	-0.4716788	1	145.5206	-0.1857143	-1.968867E-006	0.0001188	10	0.0006871	0.0999815	0
	32	60	628.811	145.5641	-0.4378918	1	145.5648	-0.1723589	-2.039634E-006	0.0001195	10	0.000687	0.0999991	0
	33	62	502.2321	145.6224	-0.4155282	1	145.623	-0.163491	-2.085693E-006	0.0001167	10	0.0006599	0.0954398	0
	34	64	400.1524	145.6691	-0.3875439	1	145.6696	-0.1524316	-2.136647E-006	0.000117	10	0.0007078	0.1026345	0
	35	65	315.5048	145.7216	-0.3662789	1	145.722	-0.1440157	-2.160047E-006	0.0001167	10	0.0006961	0.1011313	0
	36	67	252.0161	145.7678	-0.3500341	1	145.7683	-0.1375848	-2.167212E-006	0.000112	10	0.0006899	0.1003651	0
	37	69	200.3205	145.8135	-0.3379762	1	145.8139	-0.1328037	-2.114358E-006	0.0001122	10	0.0006868	0.1000205	0
	38	71	158.0056	145.8593	-0.3232136	1	145.8597	-0.1269631	-2.161191E-006	0.0001118	10	0.0006841	0.0997054	0
	39	72	125.558	145.8985	-0.3080204	1	145.8988	-0.1209625	-2.151359E-006	0.0001166	10	0.0006796	0.0991015	0
	40	74	99.734	145.938	-0.2985951	1	145.9383	-0.1172293	-2.088077E-006	0.0001129	10	0.0006708	0.0978599	0
	41	76	79.44915	145.9689	-0.2670122	1	145.9691	-0.1048077	-2.228852E-006	0.0001118	10	0.0007051	0.1029023	0
	42	77	62.91946	146.0038	-0.2677667	1	146.004	-0.1050787	-2.204284E-006	0.0001116	10	0.0006851	0.1000113	0
	43	79	49.86702	146.0299	-0.2522207	1	146.0301	-0.0989604	-2.122852E-006	0.0001131	10	0.000685	0.100028	0
	44	81	38.42213	146.0532	-0.2343258	1	146.0534	-0.0919245	-2.079786E-006	0.0001142	10	0.0006847	0.1000039	0
	45	83	31.25	146.0683	-0.2326795	1	146.0685	-0.0912692	-2.044937E-006	0.0001134	10	0.0006846	0.1000015	0
	46	85	24.93351	146.0828	-0.2197225	1	146.083	-0.0861782	-1.999952E-006	0.0001133	10	0.0006845	0.0999985	0
	47	87	20.03205	146.0916	-0.2074293	1	146.0918	-0.0813518	-2.095682E-006	0.0001102	10	0.0006845	0.1	0
	48	88	15.625	146.1061	-0.2018113	1	146.1062	-0.0791407	-2.019803E-006	0.0001109	10	0.0006844	0.0999991	0
	49	90	12.46675	146.1198	-0.1962631	1	146.1199	-0.0769577	-1.992605E-006	0.0001131	10	0.0006844	0.1000001	0
	50	92	9.9734	146.1341	-0.189431	1	146.1342	-0.0742715	-2.011808E-006	0.0001123	10	0.0006843	0.0999993	0
	51	95	7.971939	146.1504	-0.1845728	1	146.1505	-0.0723586	-1.945402E-006	0.0001116	10	0.0006842	0.1000002	0
	52	97	6.351626	146.1562	-0.1788273	1	146.1564	-0.0701034	-2.001778E-006	0.0001119	10	0.0006842	0.0999996	0
	53	99	5.013369	146.162	-0.1754012	1	146.1621	-0.0687575	-1.993574E-006	0.0001109	10	0.0006842	0.1	0
	54	102	3.985969	146.1656	-0.174265	1	146.1657	-0.0683105	-1.974137E-006	0.000113	10	0.0006842	0.1000001	0
	55	105	3.175813	146.1652	-0.1746711	1	146.1653	-0.0684699	-1.979261E-006	0.000112	10	0.0006842	0.0999994	0
	56	108	2.516103	146.1719	-0.1538549	1	146.172	-0.0603073	-1.940538E-006	0.0001146	10	0.0006591	0.0964881	0
	57	112	1.99553	146.1741	-0.1525685	1	146.1741	-0.0598022	-1.92319E-006	0.0001151	10	0.0006978	0.1020727	0
	58	117	1.587906	146.2005	-0.1572814	1	146.2006	-0.0616384	-1.81541E-006	0.0001166	10	0.0006896	0.1008571	0
	59	122	1.258052	146.223	-0.159611	1	146.2231	-0.0625417	-1.791026E-006	0.0001153	10	0.0006863	0.100366	0
	60	128	0.997765	146.2492	-0.1614681	1	146.2493	-0.063258	-1.699225E-006	0.0001158	10	0.0006848	0.1001554	0
	61	134	0.7927448	146.263	-0.1576467	1	146.2631	-0.0617551	-1.910323E-006	0.0001154	10	0.0006841	0.100067	0
	62	141	0.6290258	146.275	-0.1522245	1	146.275	-0.0596262	-1.918938E-006	0.000114	10	0.0006838	0.1000318	0
	63	149	0.4988825	146.249	-0.1470038	1	146.2491	-0.0575915	-1.674505E-006	0.0001153	10	0.0006839	0.1000159	0
	64	159	0.3985969	146.2731	-0.1447289	1	146.2732	-0.0566909	-1.884742E-006	0.0001146	10	0.0006837	0.1000087	0
