EXPLAIN
TAG	EISPOT
TITLE	LABEL	Potentiostatic EIS	Test Identifier
DATE	LABEL	2025/12/24	Date
TIME	LABEL	4:06:22	Time
NOTES	NOTES	1	Notes...
	
PSTAT	PSTAT	IFC1000-11123	Potentiostat
VDC	POTEN	0.00000E+000	T	DC Voltage (V)
FREQINIT	QUANT	1.00000E+006	Initial Freq. (Hz)
FREQFINAL	QUANT	5.00000E-001	Final Freq. (Hz)
PTSPERDEC	QUANT	1.00000E+001	Points/decade
VAC	QUANT	1.00000E+002	AC Voltage (mV rms)
AREA	QUANT	7.85000E-001	Sample Area (cm^2)
SPEED	SELECTOR	1	Optimize for:
DRIFTCOR	SELECTOR	0	Drift Correction
THD	SELECTOR	0	THD
ZGUESS	QUANT	1.00000E+002	Estimated Z (ohms)
EOC	QUANT	-6.699191E-006	Open Circuit (V)
SEQUENCER	TOGGLE	TRUE	Run as Sequence
PSTATMODEL	IQUANT	48	Pstat Model
PSTATSECTION	LABEL	IFC1000-11123	Pstat Section
PSTATSERIALNO	LABEL	11123	Pstat Serial Number
CTRLMODE	IQUANT	1	Control Mode
ELECTROMETER	IQUANT	0	RE=0 or CS=1
IESTAB	IQUANT	0	I/E Stability
CASPEED	IQUANT	3	Control Amp Speed
CONVENTION	IQUANT	1	Current Convention
ICHRANGE	IQUANT	2	Ich Range
ICHRANGEMODE	TOGGLE	F	Ich Auto Range
ICHOFFSETENABLE	TOGGLE	T	Ich Offset Enable
ICHOFFSET	QUANT	0	Ich Offset (V)
ICHFILTER	IQUANT	4	Ich Filter
VCHRANGE	IQUANT	2	Vch Range
VCHRANGEMODE	TOGGLE	F	Vch Auto Range
VCHOFFSETENABLE	TOGGLE	T	Vch Offset Enable
VCHOFFSET	QUANT	0	Vch Offset (V)
VCHFILTER	IQUANT	4	Vch Filter
IERANGELOWERLIMIT	IQUANT	4	I/E Range Lower Limit
IERANGEMODE	TOGGLE	F	I/E AutoRange
IERANGE	IQUANT	11	I/E Range
ACHSELECT	IQUANT	0	Ach Select
ACHRANGE	IQUANT	2	Ach Range
ACHOFFSETENABLE	TOGGLE	F	Ach Offset Enable
ACHOFFSET	QUANT	0	Ach Offset (V)
ACHFILTER	IQUANT	1	Ach Filter
SENSECABLEID	IQUANT	14	Sense Cable ID
PWRCABLEID	IQUANT	14	Power Cable ID
DCCALDATE	LABEL	5/23/2025	DC Calibration Date
ACCALDATE	LABEL	4/29/2023	AC Calibration Date
FRAMEWORKVERSION	LABEL	7.10.0	Framework Version
INSTRUMENTVERSION	LABEL	4.72	Instrument Version
COMMVERSION	LABEL	3.10	Communications Version
CPUPLDVERSION	LABEL	1.10	CPU PLD Version
CTRLPLDVERSION	LABEL	0.00	CTRL PLD Version
PSTATPLDVERSION	LABEL	0.00	PSTAT PLD Version
ZCURVE	TABLE
	Pt	Time	Freq	Zreal	Zimag	Zsig	Zmod	Zphz	Idc	Vdc	IERange	Imod	Vmod	Temp
	#	s	Hz	ohm	ohm	V	ohm	°	A	V	#	A	V	°C
	0	3	1000020	123.1002	-3.742664	1	123.1571	-1.74145	-1.268391E-005	0.0002565	10	0.0008448	0.0999001	0
	1	5	794355.5	124.3316	-4.823349	1	124.4251	-2.221632	-1.250117E-005	0.0002723	10	0.0012479	0.1506089	0
	2	7	630996.1	125.6306	-5.733817	1	125.7614	-2.613182	-1.279819E-005	0.0002726	10	0.0011054	0.1358558	0
	3	9	501269.5	126.9866	-6.521783	1	127.1539	-2.940017	-1.307991E-005	0.000261	10	0.001025	0.1280476	0
	4	10	398144.5	128.403	-7.183038	1	128.6038	-3.201866	-1.326303E-005	0.0002566	10	0.0009693	0.12293	0
	5	12	316230.5	129.8452	-7.731274	1	130.0752	-3.407495	-1.329816E-005	0.0002353	10	0.0009242	0.11886	0
	6	14	251191.4	131.343	-8.140252	1	131.595	-3.546486	-1.349153E-005	0.0002368	10	0.0008832	0.1151534	0
	7	16	199628.9	132.8763	-8.423555	1	133.1431	-3.627352	-1.364715E-005	0.0002131	10	0.0008381	0.1107487	0
	8	18	158496.1	134.4483	-8.581079	1	134.7218	-3.651915	-1.361398E-005	0.0002273	10	0.0008102	0.1084907	0
	9	19	125918	136.0147	-8.588717	1	136.2856	-3.613174	-1.359046E-005	0.0002161	10	0.0007784	0.105577	0
	10	21	100019.5	137.5799	-8.470538	1	137.8404	-3.523148	-2.462486E-006	0.0000987	10	0.0007357	0.1009914	0
	11	23	79511.72	139.0547	-8.228026	1	139.298	-3.386307	-2.413894E-006	0.0000969	10	0.0007501	0.1042076	0
	12	25	63105.47	140.5002	-7.83355	1	140.7184	-3.191206	-2.448175E-006	9.120058E-005	10	0.0007279	0.1022545	0
	13	26	50214.84	141.821	-7.315701	1	142.0096	-2.952931	-2.487124E-006	9.371911E-005	10	0.0007134	0.1011984	0
	14	28	39902.34	142.9889	-6.701169	1	143.1458	-2.683202	-2.46161E-006	9.066163E-005	10	0.0007037	0.1006606	0
	15	30	31699.22	144.015	-6.029464	1	144.1412	-2.397397	-2.410032E-006	9.153842E-005	10	0.0006965	0.1003511	0
	16	32	25136.72	144.8914	-5.322454	1	144.9891	-2.103762	-2.454516E-006	9.003072E-005	10	0.0006914	0.1002204	0
	17	34	19980.47	145.6037	-4.635381	1	145.6774	-1.82343	-2.393451E-006	8.822023E-005	10	0.0006874	0.1001215	0
	18	35	15878.91	146.1621	-3.98025	1	146.2162	-1.559879	-2.375443E-006	8.822023E-005	10	0.0006845	0.1000679	0
	19	37	12597.66	146.6113	-3.39152	1	146.6505	-1.325172	-2.280493E-006	8.943304E-005	10	0.0006823	0.1000469	0
	20	39	10019.53	146.9578	-2.862218	1	146.9857	-1.115778	-2.32561E-006	8.757529E-005	10	0.0006804	0.1000062	0
	21	41	7928.241	147.2265	-2.397129	1	147.246	-0.9328029	-4.080189E-007	0.0001447	10	0.0006793	0.1000217	0
	22	42	6307.871	147.4335	-2.003801	1	147.4471	-0.7786717	-4.115157E-007	0.000144	10	0.0006782	0.0999995	0
	23	44	5034.722	147.5812	-1.688827	1	147.5909	-0.6556284	-1.912807E-006	0.0001189	10	0.0006593	0.0970604	0
	24	46	3993.056	147.6982	-1.410165	1	147.7049	-0.5470214	-1.87133E-006	0.0001184	10	0.00069	0.1017643	0
	25	48	3144.055	147.7928	-1.175652	1	147.7975	-0.4557628	-1.836954E-006	0.0001157	10	0.0006822	0.1007422	0
	26	49	2519.531	147.8618	-0.99771	1	147.8652	-0.3866023	-1.814295E-006	0.0001174	10	0.0006785	0.1002728	0
	27	51	2000.762	147.924	-0.8499978	1	147.9265	-0.3292282	-1.852227E-006	0.0001167	10	0.0006772	0.1001444	0
	28	53	1580.669	147.9798	-0.7307166	1	147.9816	-0.2829213	-1.728929E-006	0.0001157	10	0.0006761	0.1000362	0
	29	55	1253.634	148.0281	-0.639394	1	148.0295	-0.2474824	-1.674975E-006	0.0001181	10	0.0006758	0.1000196	0
	30	56	1000.702	148.0711	-0.5701597	1	148.0722	-0.220621	-1.673444E-006	0.0001191	10	0.0006753	0.0999906	0
	31	58	790.0281	148.1221	-0.5132567	1	148.123	-0.1985343	-1.712529E-006	0.0001196	10	0.000675	0.0999823	0
	32	60	628.811	148.1695	-0.4716357	1	148.1703	-0.1823765	-1.712389E-006	0.0001191	10	0.0006749	0.1000036	0
	33	61	502.2321	148.2308	-0.4494183	1	148.2315	-0.1737135	-1.823304E-006	0.0001154	10	0.0006483	0.0954428	0
	34	63	400.1524	148.2763	-0.4195182	1	148.2769	-0.1621065	-1.90277E-006	0.0001144	10	0.0006954	0.1026361	0
	35	65	315.5048	148.3278	-0.3976468	1	148.3283	-0.1536019	-1.992469E-006	0.0001144	10	0.0006838	0.1011322	0
	36	66	252.0161	148.3779	-0.3790587	1	148.3784	-0.1463723	-2.007129E-006	0.0001117	10	0.0006777	0.1003665	0
	37	68	200.3205	148.4275	-0.3650684	1	148.4279	-0.1409229	-1.980774E-006	0.0001111	10	0.0006747	0.1000235	0
	38	70	158.0056	148.4767	-0.3511842	1	148.4771	-0.1355185	-1.986431E-006	0.0001137	10	0.000672	0.0997062	0
	39	72	125.558	148.53	-0.338746	1	148.5303	-0.1306718	-1.895094E-006	0.0001146	10	0.0006676	0.0991043	0
	40	73	99.734	148.5834	-0.3262382	1	148.5837	-0.1258017	-1.805689E-006	0.0001118	10	0.0006589	0.0978653	0
	41	75	79.44915	148.6308	-0.2933677	1	148.6311	-0.1130903	-1.900496E-006	0.0001126	10	0.0006924	0.1028896	0
	42	77	62.91946	148.6785	-0.2943265	1	148.6788	-0.1134236	-1.895384E-006	0.0001097	10	0.0006727	0.1000094	0
	43	79	49.86702	148.7229	-0.2781922	1	148.7232	-0.1071739	-1.890069E-006	0.0001132	10	0.0006726	0.1000287	0
	44	80	38.42213	148.764	-0.2537061	1	148.7642	-0.0977137	-1.870146E-006	0.0001132	10	0.0006723	0.1000033	0
	45	82	31.25	148.7926	-0.2521344	1	148.7928	-0.0970897	-1.813101E-006	0.0001141	10	0.0006721	0.1000018	0
	46	84	24.93351	148.8226	-0.2392746	1	148.8228	-0.0921192	-1.795924E-006	0.000115	10	0.0006719	0.0999985	0
	47	86	20.03205	148.8489	-0.2258021	1	148.8491	-0.086917	-1.646907E-006	0.0001119	10	0.0006718	0.1000005	0
	48	88	15.625	148.8786	-0.2169425	1	148.8788	-0.08349	-1.595446E-006	0.000115	10	0.0006717	0.0999987	0
	49	90	12.46675	148.9054	-0.2078956	1	148.9056	-0.079994	-1.606567E-006	0.0001151	10	0.0006716	0.1000006	0
	50	92	9.9734	148.9309	-0.1985078	1	148.9311	-0.0763686	-1.539834E-006	0.0001139	10	0.0006715	0.0999995	0
	51	94	7.971939	148.9564	-0.1920768	1	148.9566	-0.0738819	-1.419348E-006	0.0001142	10	0.0006713	0.0999996	0
	52	96	6.351626	148.9803	-0.1864059	1	148.9804	-0.0716891	-1.364623E-006	0.0001131	10	0.0006712	0.1000002	0
	53	99	5.013369	148.9902	-0.1832292	1	148.9903	-0.0704627	-1.32001E-006	0.0001097	10	0.0006712	0.0999995	0
	54	101	3.985969	148.9974	-0.1770951	1	148.9975	-0.0681005	-1.333298E-006	0.0001123	10	0.0006712	0.1000001	0
	55	104	3.175813	149.0119	-0.1747388	1	149.012	-0.0671879	-1.412224E-006	0.000112	10	0.0006711	0.1	0
	56	107	2.516103	149.0267	-0.1528003	1	149.0267	-0.0587466	-1.449464E-006	0.0001142	10	0.0006464	0.0964862	0
	57	111	1.99553	149.0239	-0.1513111	1	149.024	-0.0581751	-1.449165E-006	0.0001154	10	0.0006844	0.1020736	0
	58	116	1.587906	149.0395	-0.1578427	1	149.0396	-0.06068	-1.619504E-006	0.0001151	10	0.0006765	0.1008567	0
	59	121	1.258052	149.043	-0.1563577	1	149.043	-0.0601077	-1.643878E-006	0.0001148	10	0.0006733	0.1003664	0
	60	127	0.997765	149.0372	-0.1564103	1	149.0372	-0.0601303	-1.627437E-006	0.0001147	10	0.0006719	0.1001546	0
	61	133	0.7927448	149.0368	-0.1543963	1	149.0369	-0.0593562	-1.575804E-006	0.0001156	10	0.0006714	0.1000679	0
	62	140	0.6290258	149.0285	-0.1505667	1	149.0285	-0.0578871	-1.672052E-006	0.0001151	10	0.0006712	0.1000319	0
	63	148	0.4988825	149.0105	-0.1451499	1	149.0106	-0.0558113	-1.756553E-006	0.0001146	10	0.0006712	0.1000165	0
	64	158	0.3985969	148.9454	-0.1343896	1	148.9454	-0.0516965	-1.717731E-006	0.0001153	10	0.0006714	0.1000086	0
