EXPLAIN
TAG	EISPOT
TITLE	LABEL	Potentiostatic EIS	Test Identifier
DATE	LABEL	2025/12/24	Date
TIME	LABEL	1:06:51	Time
NOTES	NOTES	1	Notes...
	
PSTAT	PSTAT	IFC1000-11123	Potentiostat
VDC	POTEN	0.00000E+000	T	DC Voltage (V)
FREQINIT	QUANT	1.00000E+006	Initial Freq. (Hz)
FREQFINAL	QUANT	5.00000E-001	Final Freq. (Hz)
PTSPERDEC	QUANT	1.00000E+001	Points/decade
VAC	QUANT	1.00000E+002	AC Voltage (mV rms)
AREA	QUANT	7.85000E-001	Sample Area (cm^2)
SPEED	SELECTOR	1	Optimize for:
DRIFTCOR	SELECTOR	0	Drift Correction
THD	SELECTOR	0	THD
ZGUESS	QUANT	1.00000E+002	Estimated Z (ohms)
EOC	QUANT	-6.301254E-006	Open Circuit (V)
SEQUENCER	TOGGLE	TRUE	Run as Sequence
PSTATMODEL	IQUANT	48	Pstat Model
PSTATSECTION	LABEL	IFC1000-11123	Pstat Section
PSTATSERIALNO	LABEL	11123	Pstat Serial Number
CTRLMODE	IQUANT	1	Control Mode
ELECTROMETER	IQUANT	0	RE=0 or CS=1
IESTAB	IQUANT	0	I/E Stability
CASPEED	IQUANT	3	Control Amp Speed
CONVENTION	IQUANT	1	Current Convention
ICHRANGE	IQUANT	2	Ich Range
ICHRANGEMODE	TOGGLE	F	Ich Auto Range
ICHOFFSETENABLE	TOGGLE	T	Ich Offset Enable
ICHOFFSET	QUANT	0	Ich Offset (V)
ICHFILTER	IQUANT	4	Ich Filter
VCHRANGE	IQUANT	2	Vch Range
VCHRANGEMODE	TOGGLE	F	Vch Auto Range
VCHOFFSETENABLE	TOGGLE	T	Vch Offset Enable
VCHOFFSET	QUANT	0	Vch Offset (V)
VCHFILTER	IQUANT	4	Vch Filter
IERANGELOWERLIMIT	IQUANT	4	I/E Range Lower Limit
IERANGEMODE	TOGGLE	F	I/E AutoRange
IERANGE	IQUANT	11	I/E Range
ACHSELECT	IQUANT	0	Ach Select
ACHRANGE	IQUANT	2	Ach Range
ACHOFFSETENABLE	TOGGLE	F	Ach Offset Enable
ACHOFFSET	QUANT	0	Ach Offset (V)
ACHFILTER	IQUANT	1	Ach Filter
SENSECABLEID	IQUANT	14	Sense Cable ID
PWRCABLEID	IQUANT	14	Power Cable ID
DCCALDATE	LABEL	5/23/2025	DC Calibration Date
ACCALDATE	LABEL	4/29/2023	AC Calibration Date
FRAMEWORKVERSION	LABEL	7.10.0	Framework Version
INSTRUMENTVERSION	LABEL	4.72	Instrument Version
COMMVERSION	LABEL	3.10	Communications Version
CPUPLDVERSION	LABEL	1.10	CPU PLD Version
CTRLPLDVERSION	LABEL	0.00	CTRL PLD Version
PSTATPLDVERSION	LABEL	0.00	PSTAT PLD Version
ZCURVE	TABLE
	Pt	Time	Freq	Zreal	Zimag	Zsig	Zmod	Zphz	Idc	Vdc	IERange	Imod	Vmod	Temp
	#	s	Hz	ohm	ohm	V	ohm	°	A	V	#	A	V	°C
	0	4	1000020	122.3503	-3.267371	1	122.3939	-1.529724	-1.242249E-005	0.0002648	10	0.0008522	0.1001451	0
	1	5	794355.5	123.4984	-4.380381	1	123.5761	-2.03138	-1.227421E-005	0.000261	10	0.0012552	0.1504577	0
	2	7	630996.1	124.7392	-5.310293	1	124.8521	-2.437677	-1.263958E-005	0.0002738	10	0.0011142	0.1359439	0
	3	9	501269.5	126.034	-6.123248	1	126.1827	-2.781476	-1.296172E-005	0.0002606	10	0.0010343	0.1282192	0
	4	11	398144.5	127.3893	-6.811178	1	127.5713	-3.060543	-1.301606E-005	0.0002575	10	0.0009763	0.1228199	0
	5	12	316230.5	128.785	-7.358205	1	128.995	-3.270072	-1.331668E-005	0.0002329	10	0.0009312	0.1187657	0
	6	14	251191.4	130.2398	-7.7921	1	130.4727	-3.423861	-1.337924E-005	0.0002311	10	0.0008903	0.115085	0
	7	16	199628.9	131.7272	-8.083954	1	131.975	-3.511775	-1.349849E-005	0.0002121	10	0.0008491	0.111206	0
	8	18	158496.1	133.2711	-8.233274	1	133.5252	-3.535148	-1.345711E-005	0.0002235	10	0.0008154	0.1082074	0
	9	20	125918	134.8037	-8.259307	1	135.0564	-3.506081	-1.356466E-005	0.0002207	10	0.0007857	0.1056077	0
	10	21	100019.5	136.3313	-8.084994	1	136.5708	-3.393896	-2.39263E-006	0.0000981	10	0.0007423	0.1009699	0
	11	23	79511.72	137.7543	-7.828963	1	137.9765	-3.252782	-2.382722E-006	9.466563E-005	10	0.0007573	0.1042201	0
	12	25	63105.47	139.131	-7.423113	1	139.3289	-3.054029	-2.415456E-006	9.449525E-005	10	0.0007351	0.1022443	0
	13	27	50214.84	140.3713	-6.891142	1	140.5404	-2.810522	-2.400386E-006	9.305344E-005	10	0.000721	0.1012194	0
	14	28	39902.34	141.4741	-6.289761	1	141.6138	-2.545623	-2.382984E-006	9.086297E-005	10	0.0007113	0.100654	0
	15	30	31699.22	142.4259	-5.627719	1	142.5371	-2.262769	-2.44688E-006	9.068416E-005	10	0.0007045	0.1003773	0
	16	32	25136.72	143.2089	-4.948308	1	143.2944	-1.978958	-2.275885E-006	9.094836E-005	10	0.0006996	0.1002175	0
	17	34	19980.47	143.8399	-4.288335	1	143.9038	-1.707668	-2.190741E-006	8.878624E-005	10	0.0006959	0.1001197	0
	18	36	15878.91	144.3416	-3.67338	1	144.3883	-1.457818	-2.224828E-006	8.832902E-005	10	0.0006931	0.1000659	0
	19	37	12597.66	144.7323	-3.113763	1	144.7658	-1.232468	-2.224596E-006	8.835783E-005	10	0.0006911	0.1000455	0
	20	39	10019.53	145.0241	-2.622648	1	145.0478	-1.036036	-2.190289E-006	8.847547E-005	10	0.0006895	0.1000061	0
	21	41	7928.241	145.2528	-2.19147	1	145.2693	-0.8643721	-3.085597E-007	0.0001442	10	0.0006885	0.1000205	0
	22	43	6307.871	145.4204	-1.831905	1	145.432	-0.7217342	-3.019981E-007	0.0001454	10	0.0006876	0.0999966	0
	23	44	5034.722	145.5463	-1.542436	1	145.5545	-0.6071728	-1.82406E-006	0.000119	10	0.0006687	0.09709	0
	24	46	3993.056	145.6484	-1.289667	1	145.6541	-0.5073212	-1.847427E-006	0.000117	10	0.0006997	0.1017642	0
	25	48	3144.055	145.7319	-1.076767	1	145.7358	-0.423333	-1.909044E-006	0.0001169	10	0.0006916	0.10071	0
	26	50	2519.531	145.7957	-0.9173813	1	145.7985	-0.3605141	-1.888662E-006	0.0001163	10	0.0006883	0.1003032	0
	27	51	2000.762	145.8542	-0.7841099	1	145.8563	-0.3080183	-1.873893E-006	0.0001175	10	0.0006866	0.1001123	0
	28	53	1580.669	145.9087	-0.6767575	1	145.9103	-0.2657488	-1.80547E-006	0.0001184	10	0.0006857	0.1000348	0
	29	55	1253.634	145.9573	-0.5947479	1	145.9585	-0.2334679	-1.800688E-006	0.0001177	10	0.0006853	0.1000191	0
	30	57	1000.702	146.0022	-0.5336049	1	146.0032	-0.2094022	-1.764849E-006	0.00012	10	0.0006849	0.0999893	0
	31	58	790.0281	146.0493	-0.4834686	1	146.0501	-0.1896662	-1.776797E-006	0.0001191	10	0.0006848	0.1000139	0
	32	60	628.811	146.095	-0.4484854	1	146.0957	-0.1758872	-1.74798E-006	0.0001166	10	0.0006843	0.0999697	0
	33	62	502.2321	146.1509	-0.4252398	1	146.1516	-0.1667069	-1.843107E-006	0.0001159	10	0.0006575	0.0954414	0
	34	63	400.1524	146.1914	-0.3974416	1	146.192	-0.1557661	-1.908652E-006	0.0001159	10	0.0007053	0.1026357	0
	35	65	315.5048	146.2456	-0.3753378	1	146.2461	-0.1470487	-1.876966E-006	0.0001147	10	0.0006936	0.1011331	0
	36	67	252.0161	146.2983	-0.3585308	1	146.2987	-0.1404136	-1.951764E-006	0.0001122	10	0.0006876	0.1003989	0
	37	68	200.3205	146.3479	-0.3466647	1	146.3483	-0.1357204	-1.958198E-006	0.0001141	10	0.0006843	0.1000221	0
	38	70	158.0056	146.406	-0.3313743	1	146.4063	-0.1296827	-1.99455E-006	0.0001124	10	0.0006813	0.0996758	0
	39	72	125.558	146.4547	-0.3183237	1	146.455	-0.1245339	-1.962258E-006	0.0001156	10	0.000677	0.099103	0
	40	74	99.734	146.5033	-0.3064147	1	146.5036	-0.1198351	-1.961379E-006	0.0001133	10	0.0006684	0.0978927	0
	41	75	79.44915	146.5552	-0.2757587	1	146.5554	-0.1078078	-1.957363E-006	0.0001137	10	0.0007021	0.1028752	0
	42	77	62.91946	146.6031	-0.2751383	1	146.6034	-0.1075301	-1.902964E-006	0.0001105	10	0.0006823	0.1000101	0
	43	79	49.86702	146.6483	-0.2609799	1	146.6486	-0.1019652	-1.846686E-006	0.0001135	10	0.0006822	0.1000288	0
	44	81	38.42213	146.6902	-0.2381135	1	146.6904	-0.0930048	-1.913798E-006	0.0001123	10	0.0006818	0.1000035	0
	45	82	31.25	146.7171	-0.2353218	1	146.7173	-0.0918975	-1.923169E-006	0.0001134	10	0.0006816	0.1000004	0
	46	84	24.93351	146.741	-0.2268828	1	146.7412	-0.0885875	-1.99363E-006	0.000112	10	0.0006815	0.0999988	0
	47	86	20.03205	146.765	-0.2132316	1	146.7652	-0.0832437	-1.995012E-006	0.0001101	10	0.0006814	0.1000006	0
	48	88	15.625	146.7841	-0.2050066	1	146.7843	-0.0800223	-1.910236E-006	0.0001128	10	0.0006813	0.099999	0
	49	90	12.46675	146.8014	-0.1987253	1	146.8016	-0.0775613	-1.811477E-006	0.0001133	10	0.0006812	0.1	0
	50	92	9.9734	146.8128	-0.1915003	1	146.8129	-0.0747357	-1.648622E-006	0.0001134	10	0.0006811	0.1000003	0
	51	94	7.971939	146.8154	-0.1853818	1	146.8156	-0.0723466	-1.629442E-006	0.0001127	10	0.0006811	0.0999995	0
	52	97	6.351626	146.8053	-0.1825693	1	146.8054	-0.0712539	-1.619343E-006	0.0001129	10	0.0006812	0.1	0
	53	99	5.013369	146.7957	-0.1784632	1	146.7959	-0.0696559	-1.653383E-006	0.0001117	10	0.0006812	0.0999994	0
	54	102	3.985969	146.7802	-0.1775433	1	146.7803	-0.0693042	-1.705079E-006	0.0001129	10	0.0006813	0.1000001	0
	55	105	3.175813	146.7613	-0.1772093	1	146.7614	-0.0691827	-1.718932E-006	0.0001125	10	0.0006814	0.0999997	0
	56	108	2.516103	146.7486	-0.1539335	1	146.7487	-0.060101	-1.6731E-006	0.0001146	10	0.0006565	0.0964871	0
	57	112	1.99553	146.7317	-0.1525448	1	146.7318	-0.0595656	-1.673307E-006	0.0001153	10	0.0006951	0.1020733	0
	58	116	1.587906	146.7288	-0.1576274	1	146.7289	-0.0615515	-1.610495E-006	0.0001153	10	0.0006871	0.100857	0
	59	121	1.258052	146.7121	-0.1598703	1	146.7122	-0.0624345	-1.613987E-006	0.0001155	10	0.000684	0.1003662	0
	60	127	0.997765	146.6885	-0.158216	1	146.6886	-0.0617983	-1.618591E-006	0.0001155	10	0.0006827	0.1001555	0
	61	133	0.7927448	146.6515	-0.1585581	1	146.6516	-0.0619476	-1.756454E-006	0.0001153	10	0.0006823	0.1000667	0
	62	140	0.6290258	146.5976	-0.1544279	1	146.5977	-0.0603561	-1.835964E-006	0.000115	10	0.0006823	0.100032	0
	63	148	0.4988825	146.5694	-0.1487092	1	146.5695	-0.0581322	-1.782516E-006	0.0001146	10	0.0006824	0.1000162	0
	64	158	0.3985969	146.5634	-0.1404909	1	146.5635	-0.0549218	-1.662045E-006	0.0001139	10	0.0006823	0.1000079	0
