EXPLAIN
TAG	EISPOT
TITLE	LABEL	Potentiostatic EIS	Test Identifier
DATE	LABEL	2025/12/24	Date
TIME	LABEL	1:54:05	Time
NOTES	NOTES	1	Notes...
	
PSTAT	PSTAT	IFC1000-11123	Potentiostat
VDC	POTEN	0.00000E+000	T	DC Voltage (V)
FREQINIT	QUANT	1.00000E+006	Initial Freq. (Hz)
FREQFINAL	QUANT	5.00000E-001	Final Freq. (Hz)
PTSPERDEC	QUANT	1.00000E+001	Points/decade
VAC	QUANT	1.00000E+002	AC Voltage (mV rms)
AREA	QUANT	7.85000E-001	Sample Area (cm^2)
SPEED	SELECTOR	1	Optimize for:
DRIFTCOR	SELECTOR	0	Drift Correction
THD	SELECTOR	0	THD
ZGUESS	QUANT	1.00000E+002	Estimated Z (ohms)
EOC	QUANT	-7.688743E-006	Open Circuit (V)
SEQUENCER	TOGGLE	TRUE	Run as Sequence
PSTATMODEL	IQUANT	48	Pstat Model
PSTATSECTION	LABEL	IFC1000-11123	Pstat Section
PSTATSERIALNO	LABEL	11123	Pstat Serial Number
CTRLMODE	IQUANT	1	Control Mode
ELECTROMETER	IQUANT	0	RE=0 or CS=1
IESTAB	IQUANT	0	I/E Stability
CASPEED	IQUANT	3	Control Amp Speed
CONVENTION	IQUANT	1	Current Convention
ICHRANGE	IQUANT	2	Ich Range
ICHRANGEMODE	TOGGLE	F	Ich Auto Range
ICHOFFSETENABLE	TOGGLE	T	Ich Offset Enable
ICHOFFSET	QUANT	0	Ich Offset (V)
ICHFILTER	IQUANT	4	Ich Filter
VCHRANGE	IQUANT	2	Vch Range
VCHRANGEMODE	TOGGLE	F	Vch Auto Range
VCHOFFSETENABLE	TOGGLE	T	Vch Offset Enable
VCHOFFSET	QUANT	0	Vch Offset (V)
VCHFILTER	IQUANT	4	Vch Filter
IERANGELOWERLIMIT	IQUANT	4	I/E Range Lower Limit
IERANGEMODE	TOGGLE	F	I/E AutoRange
IERANGE	IQUANT	11	I/E Range
ACHSELECT	IQUANT	0	Ach Select
ACHRANGE	IQUANT	2	Ach Range
ACHOFFSETENABLE	TOGGLE	F	Ach Offset Enable
ACHOFFSET	QUANT	0	Ach Offset (V)
ACHFILTER	IQUANT	1	Ach Filter
SENSECABLEID	IQUANT	14	Sense Cable ID
PWRCABLEID	IQUANT	14	Power Cable ID
DCCALDATE	LABEL	5/23/2025	DC Calibration Date
ACCALDATE	LABEL	4/29/2023	AC Calibration Date
FRAMEWORKVERSION	LABEL	7.10.0	Framework Version
INSTRUMENTVERSION	LABEL	4.72	Instrument Version
COMMVERSION	LABEL	3.10	Communications Version
CPUPLDVERSION	LABEL	1.10	CPU PLD Version
CTRLPLDVERSION	LABEL	0.00	CTRL PLD Version
PSTATPLDVERSION	LABEL	0.00	PSTAT PLD Version
ZCURVE	TABLE
	Pt	Time	Freq	Zreal	Zimag	Zsig	Zmod	Zphz	Idc	Vdc	IERange	Imod	Vmod	Temp
	#	s	Hz	ohm	ohm	V	ohm	°	A	V	#	A	V	°C
	0	4	1000020	122.5026	-3.381835	1	122.5493	-1.581319	-1.223877E-005	0.0002717	10	0.00085	0.1000141	0
	1	6	794355.5	123.6487	-4.481222	1	123.7299	-2.075581	-1.198532E-005	0.0002682	10	0.0012545	0.150564	0
	2	8	630996.1	124.8947	-5.407715	1	125.0117	-2.479256	-1.241546E-005	0.0002703	10	0.0011147	0.1361804	0
	3	9	501269.5	126.2022	-6.199021	1	126.3544	-2.812094	-1.270639E-005	0.0002615	10	0.0010307	0.1279437	0
	4	11	398144.5	127.5608	-6.883972	1	127.7464	-3.08904	-1.289203E-005	0.000249	10	0.0009778	0.1231718	0
	5	13	316230.5	128.9582	-7.437779	1	129.1725	-3.300927	-1.293315E-005	0.0002398	10	0.0009299	0.1187744	0
	6	15	251191.4	130.4156	-7.865607	1	130.6526	-3.451435	-1.300131E-005	0.000235	10	0.0008855	0.1146299	0
	7	16	199628.9	131.8947	-8.155625	1	132.1466	-3.538343	-1.311343E-005	0.0002119	10	0.0008479	0.1112022	0
	8	18	158496.1	133.4527	-8.311151	1	133.7112	-3.563658	-1.303306E-005	0.0002255	10	0.0008157	0.1084016	0
	9	20	125918	134.9809	-8.306044	1	135.2362	-3.521255	-1.31262E-005	0.0002178	10	0.0007847	0.1056099	0
	10	22	100019.5	136.5241	-8.172435	1	136.7685	-3.425679	-1.91943E-006	0.0000985	10	0.0007413	0.1009739	0
	11	24	79511.72	137.9516	-7.918838	1	138.1787	-3.285346	-1.96199E-006	9.362618E-005	10	0.0007562	0.104222	0
	12	25	63105.47	139.343	-7.517795	1	139.5457	-3.088211	-1.905891E-006	0.000096	10	0.000734	0.102248	0
	13	27	50214.84	140.6037	-6.99987	1	140.7779	-2.850082	-1.834987E-006	9.073212E-005	10	0.0007196	0.1011904	0
	14	29	39902.34	141.7194	-6.388047	1	141.8633	-2.580878	-1.931084E-006	9.134214E-005	10	0.00071	0.100657	0
	15	31	31699.22	142.6856	-5.731638	1	142.8007	-2.300317	-1.935495E-006	8.890126E-005	10	0.0007032	0.1003774	0
	16	33	25136.72	143.4924	-5.036702	1	143.5808	-2.010304	-1.856889E-006	8.962923E-005	10	0.0006982	0.1002177	0
	17	34	19980.47	144.1455	-4.373266	1	144.2119	-1.737777	-1.883799E-006	9.092025E-005	10	0.0006944	0.1001204	0
	18	36	15878.91	144.6548	-3.750004	1	144.7034	-1.484992	-1.881328E-006	8.900446E-005	10	0.0006916	0.1000674	0
	19	38	12597.66	145.0597	-3.178156	1	145.0945	-1.25511	-1.92177E-006	8.992222E-005	10	0.0006896	0.1000466	0
	20	40	10019.53	145.3661	-2.676251	1	145.3907	-1.05472	-1.919206E-006	9.08412E-005	10	0.0006879	0.1000094	0
	21	41	7928.241	145.6099	-2.23772	1	145.6271	-0.8804471	-9.042697E-008	0.0001456	10	0.0006868	0.1000199	0
	22	43	6307.871	145.788	-1.876112	1	145.8001	-0.7372851	-6.026289E-008	0.0001463	10	0.0006861	0.1000297	0
	23	45	5034.722	145.9247	-1.578958	1	145.9332	-0.6199371	-1.622285E-006	0.0001183	10	0.0006668	0.09706	0
	24	47	3993.056	146.0293	-1.319909	1	146.0353	-0.517863	-1.647313E-006	0.0001186	10	0.0006979	0.1017634	0
	25	48	3144.055	146.1144	-1.100018	1	146.1185	-0.4313415	-1.683247E-006	0.0001174	10	0.0006898	0.1007109	0
	26	50	2519.531	146.1793	-0.94023	1	146.1823	-0.3685233	-1.642156E-006	0.0001181	10	0.0006865	0.1003031	0
	27	52	2000.762	146.2326	-0.8035762	1	146.2348	-0.3148482	-1.674292E-006	0.0001187	10	0.0006848	0.1001131	0
	28	54	1580.669	146.2832	-0.6925916	1	146.2849	-0.2712702	-1.619923E-006	0.0001198	10	0.000684	0.1000366	0
	29	55	1253.634	146.3316	-0.6086137	1	146.3329	-0.2382998	-1.693276E-006	0.0001179	10	0.0006836	0.1000203	0
	30	57	1000.702	146.3803	-0.5443996	1	146.3813	-0.2130864	-1.725706E-006	0.000119	10	0.0006831	0.0999894	0
	31	59	790.0281	146.4325	-0.4944252	1	146.4334	-0.1934568	-1.644353E-006	0.0001189	10	0.000683	0.1000154	0
	32	60	628.811	146.4803	-0.4565436	1	146.481	-0.1785765	-1.665199E-006	0.0001176	10	0.0006825	0.0999712	0
	33	62	502.2321	146.5398	-0.4342512	1	146.5405	-0.1697879	-1.754238E-006	0.0001156	10	0.0006557	0.0954415	0
	34	64	400.1524	146.5863	-0.404741	1	146.5869	-0.1581995	-1.772416E-006	0.000114	10	0.0007034	0.1026366	0
	35	65	315.5048	146.6334	-0.3827459	1	146.6339	-0.1495544	-1.784092E-006	0.000115	10	0.0006918	0.1011325	0
	36	67	252.0161	146.6797	-0.3659801	1	146.6802	-0.1429582	-1.815195E-006	0.0001125	10	0.0006856	0.1003675	0
	37	69	200.3205	146.7222	-0.3520703	1	146.7226	-0.137485	-1.77156E-006	0.0001134	10	0.0006825	0.1000223	0
	38	71	158.0056	146.7658	-0.3359903	1	146.7662	-0.1311668	-1.779131E-006	0.0001126	10	0.0006799	0.0997068	0
	39	72	125.558	146.8092	-0.3229237	1	146.8096	-0.1260284	-1.803055E-006	0.0001161	10	0.0006754	0.0991048	0
	40	74	99.734	146.8549	-0.3091731	1	146.8552	-0.1206244	-1.813964E-006	0.000114	10	0.0006666	0.0978641	0
	41	76	79.44915	146.8929	-0.280232	1	146.8932	-0.1093047	-1.940468E-006	0.0001139	10	0.0007006	0.1028946	0
	42	77	62.91946	146.9323	-0.2792675	1	146.9325	-0.1088994	-1.90333E-006	0.0001121	10	0.0006808	0.1000131	0
	43	79	49.86702	146.9808	-0.2630477	1	146.9811	-0.1025406	-1.746296E-006	0.0001134	10	0.0006806	0.1000283	0
	44	81	38.42213	147.0184	-0.2410733	1	147.0186	-0.0939506	-1.584885E-006	0.0001141	10	0.0006802	0.1000021	0
	45	83	31.25	147.0508	-0.2394181	1	147.051	-0.093285	-1.572418E-006	0.0001145	10	0.0006801	0.1000021	0
	46	85	24.93351	147.0853	-0.228234	1	147.0855	-0.0889065	-1.539816E-006	0.0001146	10	0.0006799	0.0999976	0
	47	87	20.03205	147.1227	-0.2162225	1	147.1228	-0.0842061	-1.665212E-006	0.0001125	10	0.0006797	0.0999999	0
	48	88	15.625	147.158	-0.2093203	1	147.1581	-0.0814985	-1.656252E-006	0.0001126	10	0.0006795	0.0999999	0
	49	90	12.46675	147.1804	-0.1991334	1	147.1805	-0.0775205	-1.665035E-006	0.0001143	10	0.0006794	0.1000005	0
	50	92	9.9734	147.198	-0.1937412	1	147.1982	-0.0754123	-1.614218E-006	0.0001156	10	0.0006794	0.0999994	0
	51	95	7.971939	147.2157	-0.188154	1	147.2159	-0.0732288	-1.601399E-006	0.0001143	10	0.0006793	0.0999994	0
	52	97	6.351626	147.2338	-0.1839116	1	147.2339	-0.0715689	-1.621557E-006	0.0001145	10	0.0006792	0.0999995	0
	53	99	5.013369	147.2463	-0.1791577	1	147.2464	-0.069713	-1.743836E-006	0.0001109	10	0.0006791	0.1000006	0
	54	102	3.985969	147.253	-0.1764384	1	147.2531	-0.0686517	-1.832783E-006	0.0001131	10	0.0006791	0.1000001	0
	55	105	3.175813	147.2656	-0.1744688	1	147.2657	-0.0678795	-1.90891E-006	0.0001134	10	0.000679	0.1000002	0
	56	108	2.516103	147.2825	-0.153339	1	147.2826	-0.0596518	-1.815268E-006	0.000115	10	0.0006541	0.0964868	0
	57	112	1.99553	147.2722	-0.1507058	1	147.2722	-0.0586316	-1.754012E-006	0.0001165	10	0.0006926	0.1020736	0
	58	117	1.587906	147.296	-0.1579552	1	147.2961	-0.061442	-1.767073E-006	0.0001169	10	0.0006845	0.1008564	0
	59	122	1.258052	147.3333	-0.1587799	1	147.3334	-0.0617472	-1.75105E-006	0.0001148	10	0.0006811	0.1003659	0
	60	128	0.997765	147.3578	-0.1593364	1	147.3579	-0.0619533	-1.680884E-006	0.0001152	10	0.0006796	0.1001555	0
	61	134	0.7927448	147.3854	-0.1556701	1	147.3855	-0.0605164	-1.657307E-006	0.000115	10	0.0006789	0.1000667	0
	62	141	0.6290258	147.4114	-0.1497707	1	147.4114	-0.0582128	-1.639704E-006	0.0001161	10	0.0006786	0.1000323	0
	63	149	0.4988825	147.4012	-0.1451506	1	147.4013	-0.0564209	-1.447821E-006	0.0001147	10	0.0006785	0.100016	0
	64	159	0.3985969	147.3718	-0.1434205	1	147.3719	-0.0557596	-1.447331E-006	0.0001154	10	0.0006786	0.1000087	0
