EXPLAIN
TAG	EISPOT
TITLE	LABEL	Potentiostatic EIS	Test Identifier
DATE	LABEL	2025/12/24	Date
TIME	LABEL	2:41:20	Time
NOTES	NOTES	1	Notes...
	
PSTAT	PSTAT	IFC1000-11123	Potentiostat
VDC	POTEN	0.00000E+000	T	DC Voltage (V)
FREQINIT	QUANT	1.00000E+006	Initial Freq. (Hz)
FREQFINAL	QUANT	5.00000E-001	Final Freq. (Hz)
PTSPERDEC	QUANT	1.00000E+001	Points/decade
VAC	QUANT	1.00000E+002	AC Voltage (mV rms)
AREA	QUANT	7.85000E-001	Sample Area (cm^2)
SPEED	SELECTOR	1	Optimize for:
DRIFTCOR	SELECTOR	0	Drift Correction
THD	SELECTOR	0	THD
ZGUESS	QUANT	1.00000E+002	Estimated Z (ohms)
EOC	QUANT	-7.203351E-006	Open Circuit (V)
SEQUENCER	TOGGLE	TRUE	Run as Sequence
PSTATMODEL	IQUANT	48	Pstat Model
PSTATSECTION	LABEL	IFC1000-11123	Pstat Section
PSTATSERIALNO	LABEL	11123	Pstat Serial Number
CTRLMODE	IQUANT	1	Control Mode
ELECTROMETER	IQUANT	0	RE=0 or CS=1
IESTAB	IQUANT	0	I/E Stability
CASPEED	IQUANT	3	Control Amp Speed
CONVENTION	IQUANT	1	Current Convention
ICHRANGE	IQUANT	2	Ich Range
ICHRANGEMODE	TOGGLE	F	Ich Auto Range
ICHOFFSETENABLE	TOGGLE	T	Ich Offset Enable
ICHOFFSET	QUANT	0	Ich Offset (V)
ICHFILTER	IQUANT	4	Ich Filter
VCHRANGE	IQUANT	2	Vch Range
VCHRANGEMODE	TOGGLE	F	Vch Auto Range
VCHOFFSETENABLE	TOGGLE	T	Vch Offset Enable
VCHOFFSET	QUANT	0	Vch Offset (V)
VCHFILTER	IQUANT	4	Vch Filter
IERANGELOWERLIMIT	IQUANT	4	I/E Range Lower Limit
IERANGEMODE	TOGGLE	F	I/E AutoRange
IERANGE	IQUANT	11	I/E Range
ACHSELECT	IQUANT	0	Ach Select
ACHRANGE	IQUANT	2	Ach Range
ACHOFFSETENABLE	TOGGLE	F	Ach Offset Enable
ACHOFFSET	QUANT	0	Ach Offset (V)
ACHFILTER	IQUANT	1	Ach Filter
SENSECABLEID	IQUANT	14	Sense Cable ID
PWRCABLEID	IQUANT	14	Power Cable ID
DCCALDATE	LABEL	5/23/2025	DC Calibration Date
ACCALDATE	LABEL	4/29/2023	AC Calibration Date
FRAMEWORKVERSION	LABEL	7.10.0	Framework Version
INSTRUMENTVERSION	LABEL	4.72	Instrument Version
COMMVERSION	LABEL	3.10	Communications Version
CPUPLDVERSION	LABEL	1.10	CPU PLD Version
CTRLPLDVERSION	LABEL	0.00	CTRL PLD Version
PSTATPLDVERSION	LABEL	0.00	PSTAT PLD Version
ZCURVE	TABLE
	Pt	Time	Freq	Zreal	Zimag	Zsig	Zmod	Zphz	Idc	Vdc	IERange	Imod	Vmod	Temp
	#	s	Hz	ohm	ohm	V	ohm	°	A	V	#	A	V	°C
	0	3	1000020	122.5497	-3.474765	1	122.5989	-1.624126	-1.209213E-005	0.0002671	10	0.0008497	0.1000207	0
	1	5	794355.5	123.7404	-4.564664	1	123.8245	-2.112629	-1.204954E-005	0.0002619	10	0.0012538	0.150589	0
	2	7	630996.1	125.0073	-5.502017	1	125.1283	-2.520165	-1.243701E-005	0.0002647	10	0.001112	0.1359832	0
	3	9	501269.5	126.3332	-6.298482	1	126.4901	-2.854182	-1.278491E-005	0.000255	10	0.0010321	0.128258	0
	4	11	398144.5	127.7074	-6.985151	1	127.8983	-3.130761	-1.282989E-005	0.000252	10	0.000974	0.1228497	0
	5	12	316230.5	129.1266	-7.519921	1	129.3454	-3.332958	-1.292441E-005	0.0002327	10	0.0009289	0.1187937	0
	6	14	251191.4	130.6004	-7.949048	1	130.8421	-3.483034	-1.298264E-005	0.0002285	10	0.0008879	0.1151018	0
	7	16	199628.9	132.1278	-8.230682	1	132.3839	-3.564539	-1.315453E-005	0.0002134	10	0.0008426	0.1107086	0
	8	18	158496.1	133.6796	-8.389266	1	133.9426	-3.590975	-1.311633E-005	0.0002268	10	0.0008153	0.1085414	0
	9	19	125918	135.2387	-8.371308	1	135.4976	-3.542103	-1.324839E-005	0.0002158	10	0.0007832	0.1056167	0
	10	21	100019.5	136.7963	-8.27024	1	137.0461	-3.459697	-1.875277E-006	0.0000996	10	0.0007398	0.1009799	0
	11	23	79511.72	138.2505	-8.021962	1	138.483	-3.320855	-1.866932E-006	0.0000971	10	0.0007546	0.1042279	0
	12	25	63105.47	139.6615	-7.620811	1	139.8693	-3.123321	-1.906679E-006	9.262457E-005	10	0.0007323	0.1022507	0
	13	27	50214.84	140.9391	-7.105645	1	141.1181	-2.886205	-1.939658E-006	8.97774E-005	10	0.0007179	0.1011941	0
	14	28	39902.34	142.0854	-6.49924	1	142.234	-2.618986	-1.812392E-006	9.155995E-005	10	0.0007082	0.1006589	0
	15	30	31699.22	143.0661	-5.825103	1	143.1846	-2.331577	-1.769311E-006	8.99022E-005	10	0.0007014	0.1003793	0
	16	32	25136.72	143.8957	-5.135568	1	143.9873	-2.043991	-1.748467E-006	8.860289E-005	10	0.000696	0.1001871	0
	17	34	19980.47	144.5672	-4.459717	1	144.636	-1.766942	-1.722922E-006	8.957996E-005	10	0.0006924	0.1001213	0
	18	35	15878.91	145.0939	-3.83265	1	145.1445	-1.513114	-1.608493E-006	8.892576E-005	10	0.0006895	0.1000678	0
	19	37	12597.66	145.5051	-3.24574	1	145.5412	-1.277869	-1.582855E-006	9.033247E-005	10	0.0006875	0.1000458	0
	20	39	10019.53	145.8191	-2.740063	1	145.8449	-1.076509	-1.525374E-006	8.785026E-005	10	0.000686	0.1000396	0
	21	41	7928.241	146.0589	-2.293502	1	146.0769	-0.8996179	2.779311E-007	0.000146	10	0.0006847	0.10002	0
	22	42	6307.871	146.2522	-1.919229	1	146.2647	-0.7518345	2.753761E-007	0.0001462	10	0.0006837	0.0999974	0
	23	44	5034.722	146.3823	-1.61458	1	146.3912	-0.6319402	-1.296092E-006	0.0001169	10	0.0006647	0.0970612	0
	24	46	3993.056	146.4941	-1.350046	1	146.5004	-0.5280059	-1.345694E-006	0.0001183	10	0.0006956	0.101764	0
	25	48	3144.055	146.5878	-1.126136	1	146.5922	-0.4401563	-1.420676E-006	0.0001163	10	0.0006878	0.1007396	0
	26	49	2519.531	146.6569	-0.958117	1	146.66	-0.3743111	-1.402596E-006	0.0001159	10	0.0006841	0.1002725	0
	27	51	2000.762	146.7179	-0.8183632	1	146.7202	-0.3195811	-1.410453E-006	0.0001166	10	0.0006826	0.1001134	0
	28	53	1580.669	146.7722	-0.7060397	1	146.7739	-0.2756162	-1.388762E-006	0.0001172	10	0.0006819	0.1000663	0
	29	55	1253.634	146.8207	-0.6181122	1	146.822	-0.2412127	-1.429336E-006	0.0001185	10	0.0006811	0.0999895	0
	30	56	1000.702	146.8661	-0.5526921	1	146.8672	-0.2156166	-1.329138E-006	0.0001177	10	0.0006811	0.1000216	0
	31	58	790.0281	146.9156	-0.5006196	1	146.9165	-0.1952364	-1.395607E-006	0.0001187	10	0.0006806	0.099985	0
	32	60	628.811	146.9582	-0.4625427	1	146.9589	-0.1803346	-1.400806E-006	0.000118	10	0.0006805	0.1000032	0
	33	61	502.2321	147.0076	-0.4393279	1	147.0083	-0.1712262	-1.493406E-006	0.0001174	10	0.0006535	0.0954124	0
	34	63	400.1524	147.0426	-0.4099073	1	147.0432	-0.1597217	-1.373894E-006	0.0001158	10	0.0007013	0.1026387	0
	35	65	315.5048	147.0816	-0.3889519	1	147.0821	-0.1515162	-1.274766E-006	0.0001166	10	0.0006896	0.1011321	0
	36	67	252.0161	147.1273	-0.3729416	1	147.1278	-0.1452343	-1.191665E-006	0.000114	10	0.0006837	0.1003985	0
	37	68	200.3205	147.1749	-0.3580928	1	147.1753	-0.1394067	-1.210636E-006	0.0001137	10	0.0006805	0.100023	0
	38	70	158.0056	147.2269	-0.3420969	1	147.2272	-0.1331325	-1.103313E-006	0.0001121	10	0.0006775	0.099676	0
	39	72	125.558	147.2765	-0.3291866	1	147.2769	-0.1280651	-1.085169E-006	0.0001176	10	0.0006732	0.0991039	0
	40	73	99.734	147.3235	-0.3155982	1	147.3239	-0.1227395	-1.134186E-006	0.0001144	10	0.0006647	0.0978935	0
	41	75	79.44915	147.3636	-0.285548	1	147.3639	-0.1110225	-1.238666E-006	0.000113	10	0.0006982	0.102874	0
	42	77	62.91946	147.4058	-0.286254	1	147.406	-0.1112652	-1.222455E-006	0.0001119	10	0.0006785	0.1000083	0
	43	79	49.86702	147.4428	-0.273002	1	147.443	-0.1060876	-1.164551E-006	0.0001122	10	0.0006785	0.1000292	0
	44	80	38.42213	147.4812	-0.2457148	1	147.4814	-0.095459	-1.217903E-006	0.0001137	10	0.0006781	0.100004	0
	45	82	31.25	147.5133	-0.2461624	1	147.5135	-0.0956121	-1.350874E-006	0.0001134	10	0.0006779	0.1000011	0
	46	84	24.93351	147.5385	-0.2340361	1	147.5387	-0.0908866	-1.347571E-006	0.0001138	10	0.0006778	0.0999989	0
	47	86	20.03205	147.5638	-0.2209721	1	147.564	-0.0857985	-1.551472E-006	0.0001105	10	0.0006777	0.099999	0
	48	88	15.625	147.5916	-0.2120456	1	147.5918	-0.0823171	-1.608492E-006	0.0001124	10	0.0006775	0.0999997	0
	49	90	12.46675	147.6099	-0.2025591	1	147.61	-0.0786246	-1.640344E-006	0.000113	10	0.0006775	0.1000002	0
	50	92	9.9734	147.6243	-0.1937662	1	147.6245	-0.0752043	-1.631115E-006	0.0001134	10	0.0006774	0.0999999	0
	51	94	7.971939	147.6388	-0.1904756	1	147.6389	-0.0739199	-1.656425E-006	0.0001124	10	0.0006773	0.0999997	0
	52	96	6.351626	147.647	-0.1825924	1	147.6471	-0.0708566	-1.681733E-006	0.0001138	10	0.0006773	0.1000002	0
	53	99	5.013369	147.6467	-0.179084	1	147.6468	-0.0694953	-1.703709E-006	0.0001124	10	0.0006773	0.0999997	0
	54	101	3.985969	147.6445	-0.176339	1	147.6446	-0.0684311	-1.723512E-006	0.0001131	10	0.0006773	0.1000002	0
	55	104	3.175813	147.6459	-0.1733946	1	147.646	-0.0672878	-1.733427E-006	0.0001129	10	0.0006773	0.0999995	0
	56	108	2.516103	147.6479	-0.1530311	1	147.648	-0.0593847	-1.66478E-006	0.0001154	10	0.0006525	0.0964877	0
	57	112	1.99553	147.6597	-0.151344	1	147.6598	-0.0587254	-1.716701E-006	0.0001155	10	0.0006907	0.1020724	0
	58	116	1.587906	147.6821	-0.1546583	1	147.6822	-0.0600023	-1.714642E-006	0.0001157	10	0.0006827	0.1008566	0
	59	121	1.258052	147.7081	-0.1598111	1	147.7082	-0.0619905	-1.771874E-006	0.0001159	10	0.0006794	0.1003672	0
	60	127	0.997765	147.7513	-0.1576969	1	147.7514	-0.0611525	-1.815918E-006	0.0001168	10	0.0006778	0.1001541	0
	61	133	0.7927448	147.8013	-0.156651	1	147.8014	-0.0607264	-1.774044E-006	0.0001162	10	0.000677	0.1000678	0
	62	140	0.6290258	147.8664	-0.1527744	1	147.8665	-0.0591975	-1.706311E-006	0.0001161	10	0.0006765	0.1000324	0
	63	148	0.4988825	147.9072	-0.1455971	1	147.9072	-0.0564009	-1.6598E-006	0.0001161	10	0.0006762	0.1000154	0
	64	158	0.3985969	147.8968	-0.1400816	1	147.8969	-0.0542681	-1.54044E-006	0.0001155	10	0.0006762	0.1000081	0
