EXPLAIN
TAG	EISPOT
TITLE	LABEL	Potentiostatic EIS	Test Identifier
DATE	LABEL	2025/12/24	Date
TIME	LABEL	0:10:10	Time
NOTES	NOTES	1	Notes...
	
PSTAT	PSTAT	IFC1000-11123	Potentiostat
VDC	POTEN	0.00000E+000	T	DC Voltage (V)
FREQINIT	QUANT	1.00000E+006	Initial Freq. (Hz)
FREQFINAL	QUANT	5.00000E-001	Final Freq. (Hz)
PTSPERDEC	QUANT	1.00000E+001	Points/decade
VAC	QUANT	1.00000E+002	AC Voltage (mV rms)
AREA	QUANT	7.85000E-001	Sample Area (cm^2)
SPEED	SELECTOR	1	Optimize for:
DRIFTCOR	SELECTOR	0	Drift Correction
THD	SELECTOR	0	THD
ZGUESS	QUANT	1.00000E+002	Estimated Z (ohms)
EOC	QUANT	-6.820746E-006	Open Circuit (V)
SEQUENCER	TOGGLE	TRUE	Run as Sequence
PSTATMODEL	IQUANT	48	Pstat Model
PSTATSECTION	LABEL	IFC1000-11123	Pstat Section
PSTATSERIALNO	LABEL	11123	Pstat Serial Number
CTRLMODE	IQUANT	1	Control Mode
ELECTROMETER	IQUANT	0	RE=0 or CS=1
IESTAB	IQUANT	0	I/E Stability
CASPEED	IQUANT	3	Control Amp Speed
CONVENTION	IQUANT	1	Current Convention
ICHRANGE	IQUANT	2	Ich Range
ICHRANGEMODE	TOGGLE	F	Ich Auto Range
ICHOFFSETENABLE	TOGGLE	T	Ich Offset Enable
ICHOFFSET	QUANT	0	Ich Offset (V)
ICHFILTER	IQUANT	4	Ich Filter
VCHRANGE	IQUANT	2	Vch Range
VCHRANGEMODE	TOGGLE	F	Vch Auto Range
VCHOFFSETENABLE	TOGGLE	T	Vch Offset Enable
VCHOFFSET	QUANT	0	Vch Offset (V)
VCHFILTER	IQUANT	4	Vch Filter
IERANGELOWERLIMIT	IQUANT	4	I/E Range Lower Limit
IERANGEMODE	TOGGLE	F	I/E AutoRange
IERANGE	IQUANT	11	I/E Range
ACHSELECT	IQUANT	0	Ach Select
ACHRANGE	IQUANT	2	Ach Range
ACHOFFSETENABLE	TOGGLE	F	Ach Offset Enable
ACHOFFSET	QUANT	0	Ach Offset (V)
ACHFILTER	IQUANT	1	Ach Filter
SENSECABLEID	IQUANT	14	Sense Cable ID
PWRCABLEID	IQUANT	14	Power Cable ID
DCCALDATE	LABEL	5/23/2025	DC Calibration Date
ACCALDATE	LABEL	4/29/2023	AC Calibration Date
FRAMEWORKVERSION	LABEL	7.10.0	Framework Version
INSTRUMENTVERSION	LABEL	4.72	Instrument Version
COMMVERSION	LABEL	3.10	Communications Version
CPUPLDVERSION	LABEL	1.10	CPU PLD Version
CTRLPLDVERSION	LABEL	0.00	CTRL PLD Version
PSTATPLDVERSION	LABEL	0.00	PSTAT PLD Version
ZCURVE	TABLE
	Pt	Time	Freq	Zreal	Zimag	Zsig	Zmod	Zphz	Idc	Vdc	IERange	Imod	Vmod	Temp
	#	s	Hz	ohm	ohm	V	ohm	°	A	V	#	A	V	°C
	0	3	1000020	122.0827	-3.096179	1	122.1219	-1.452785	-1.240609E-005	0.0002598	10	0.0008524	0.099949	0
	1	5	794355.5	123.199	-4.205245	1	123.2707	-1.954962	-1.231705E-005	0.0002681	10	0.0012601	0.1506682	0
	2	7	630996.1	124.3966	-5.160356	1	124.5036	-2.375444	-1.26043E-005	0.0002673	10	0.0011187	0.1361095	0
	3	9	501269.5	125.683	-5.988116	1	125.8256	-2.727772	-1.289028E-005	0.000262	10	0.0010345	0.1278801	0
	4	10	398144.5	127.0085	-6.670093	1	127.1835	-3.006236	-1.294669E-005	0.0002495	10	0.0009818	0.1231307	0
	5	12	316230.5	128.3868	-7.231894	1	128.5904	-3.224003	-1.319166E-005	0.0002386	10	0.0009338	0.118733	0
	6	14	251191.4	129.8221	-7.660101	1	130.0479	-3.376799	-1.304132E-005	0.000235	10	0.000893	0.1150627	0
	7	16	199628.9	131.316	-7.94941	1	131.5564	-3.464257	-1.325532E-005	0.0002127	10	0.0008477	0.1106788	0
	8	17	158496.1	132.8158	-8.089273	1	133.0619	-3.48535	-1.319097E-005	0.0002249	10	0.0008216	0.1086509	0
	9	19	125918	134.3099	-8.088477	1	134.5533	-3.446332	-1.31426E-005	0.000217	10	0.0007888	0.1056226	0
	10	21	100019.5	135.8306	-7.942183	1	136.0626	-3.346345	-1.9441E-006	0.000099	10	0.0007453	0.1009892	0
	11	23	79511.72	137.2184	-7.672623	1	137.4328	-3.200383	-1.927971E-006	0.0000972	10	0.0007603	0.1042145	0
	12	25	63105.47	138.5683	-7.254719	1	138.7581	-2.996974	-2.040686E-006	9.295414E-005	10	0.0007381	0.1022388	0
	13	26	50214.84	139.7706	-6.732578	1	139.9326	-2.757736	-2.059646E-006	9.228705E-005	10	0.0007241	0.1012159	0
	14	28	39902.34	140.8486	-6.12315	1	140.9817	-2.489267	-2.052371E-006	9.23436E-005	10	0.0007144	0.1006519	0
	15	30	31699.22	141.762	-5.469831	1	141.8675	-2.209638	-2.055493E-006	8.939509E-005	10	0.0007079	0.1003758	0
	16	32	25136.72	142.5252	-4.800661	1	142.6061	-1.929158	-1.996927E-006	8.939439E-005	10	0.0007029	0.1002142	0
	17	33	19980.47	143.118	-4.154472	1	143.1783	-1.662732	-1.984227E-006	8.910894E-005	10	0.0006994	0.1001187	0
	18	35	15878.91	143.5967	-3.54883	1	143.6405	-1.415712	-2.006457E-006	8.929646E-005	10	0.0006967	0.1000641	0
	19	37	12597.66	143.9628	-3.004433	1	143.9942	-1.195561	-2.123993E-006	8.94235E-005	10	0.0006948	0.1000439	0
	20	39	10019.53	144.2194	-2.532405	1	144.2416	-1.005976	-2.026487E-006	8.953083E-005	10	0.0006936	0.1000378	0
	21	40	7928.241	144.4297	-2.107505	1	144.4451	-0.8359954	-1.973222E-007	0.0001451	10	0.0006925	0.1000204	0
	22	42	6307.871	144.5762	-1.762861	1	144.5869	-0.69859	-2.055604E-007	0.0001468	10	0.0006916	0.0999967	0
	23	44	5034.722	144.6851	-1.485157	1	144.6927	-0.5881066	-1.773815E-006	0.0001186	10	0.0006725	0.0970595	0
	24	46	3993.056	144.771	-1.243434	1	144.7763	-0.4920996	-1.785306E-006	0.0001201	10	0.0007039	0.1017597	0
	25	47	3144.055	144.8388	-1.037349	1	144.8425	-0.4103508	-1.729117E-006	0.0001176	10	0.0006961	0.1007405	0
	26	49	2519.531	144.8797	-0.8844012	1	144.8824	-0.3497511	-1.794293E-006	0.0001178	10	0.0006924	0.1002711	0
	27	51	2000.762	144.9132	-0.7577379	1	144.9151	-0.2995917	-1.77303E-006	0.0001199	10	0.0006913	0.100143	0
	28	53	1580.669	144.9412	-0.6548015	1	144.9427	-0.2588437	-1.744269E-006	0.0001206	10	0.0006903	0.1000349	0
	29	55	1253.634	144.975	-0.5777831	1	144.9761	-0.2283453	-1.810326E-006	0.0001194	10	0.00069	0.1000194	0
	30	56	1000.702	145.0097	-0.5184435	1	145.0107	-0.2048449	-1.783741E-006	0.0001197	10	0.0006896	0.0999901	0
	31	58	790.0281	145.0433	-0.4707842	1	145.0441	-0.185971	-1.789521E-006	0.0001187	10	0.0006896	0.1000144	0
	32	60	628.811	145.0725	-0.4358909	1	145.0732	-0.1721528	-1.728297E-006	0.000119	10	0.0006891	0.0999701	0
	33	61	502.2321	145.1169	-0.4166903	1	145.1174	-0.1645194	-1.76865E-006	0.0001159	10	0.0006622	0.095442	0
	34	63	400.1524	145.1491	-0.3868338	1	145.1496	-0.1526974	-1.824096E-006	0.0001153	10	0.0007104	0.1026347	0
	35	65	315.5048	145.1851	-0.3649427	1	145.1856	-0.1440205	-1.797397E-006	0.0001171	10	0.0006986	0.1011301	0
	36	66	252.0161	145.2177	-0.3480336	1	145.2181	-0.1373167	-1.765395E-006	0.0001148	10	0.0006925	0.1003644	0
	37	68	200.3205	145.2589	-0.3331552	1	145.2593	-0.1314092	-1.632252E-006	0.0001158	10	0.0006896	0.1000501	0
	38	70	158.0056	145.3011	-0.3206895	1	145.3015	-0.1264555	-1.499526E-006	0.0001144	10	0.0006865	0.0996743	0
	39	72	125.558	145.3437	-0.3069941	1	145.344	-0.1210196	-1.376363E-006	0.0001192	10	0.0006824	0.0991326	0
	40	73	99.734	145.3826	-0.29207	1	145.3829	-0.1151057	-1.331633E-006	0.0001149	10	0.0006733	0.0978584	0
	41	75	79.44915	145.4208	-0.2672319	1	145.421	-0.1052893	-1.412502E-006	0.0001147	10	0.0007076	0.1028836	0
	42	77	62.91946	145.4564	-0.266269	1	145.4566	-0.1048842	-1.427206E-006	0.0001146	10	0.0006876	0.1000098	0
	43	78	49.86702	145.4904	-0.2520806	1	145.4906	-0.0992721	-1.368069E-006	0.0001145	10	0.0006876	0.1000297	0
	44	80	38.42213	145.5159	-0.2293352	1	145.5161	-0.090299	-1.382504E-006	0.0001158	10	0.0006873	0.100004	0
	45	82	31.25	145.5269	-0.2291058	1	145.5271	-0.0902018	-1.460395E-006	0.0001149	10	0.0006872	0.0999991	0
	46	84	24.93351	145.5359	-0.2183369	1	145.5361	-0.0859566	-1.530819E-006	0.000113	10	0.0006871	0.0999997	0
	47	86	20.03205	145.543	-0.205309	1	145.5431	-0.0808238	-1.55347E-006	0.000112	10	0.0006871	0.1000006	0
	48	88	15.625	145.5532	-0.1999745	1	145.5533	-0.0787182	-1.572845E-006	0.000114	10	0.000687	0.0999994	0
	49	90	12.46675	145.5574	-0.195025	1	145.5576	-0.0767677	-1.570134E-006	0.0001144	10	0.000687	0.0999995	0
	50	92	9.9734	145.5724	-0.188447	1	145.5726	-0.0741707	-1.585852E-006	0.0001146	10	0.0006869	0.0999999	0
	51	94	7.971939	145.5802	-0.1832345	1	145.5803	-0.0721153	-1.601464E-006	0.0001163	10	0.0006869	0.0999992	0
	52	96	6.351626	145.5919	-0.1795211	1	145.592	-0.0706481	-1.644941E-006	0.0001157	10	0.0006869	0.0999999	0
	53	99	5.013369	145.595	-0.1764253	1	145.5951	-0.0694283	-1.569694E-006	0.0001132	10	0.0006868	0.1000002	0
	54	101	3.985969	145.5927	-0.1757992	1	145.5928	-0.0691831	-1.389552E-006	0.0001159	10	0.0006868	0.0999997	0
	55	104	3.175813	145.5907	-0.1746819	1	145.5909	-0.0687443	-1.403113E-006	0.0001143	10	0.0006869	0.0999999	0
	56	107	2.516103	145.6009	-0.1543958	1	145.601	-0.0607567	-1.391509E-006	0.0001169	10	0.0006617	0.0964883	0
	57	111	1.99553	145.588	-0.1539762	1	145.5881	-0.0605969	-1.433123E-006	0.0001158	10	0.0007006	0.102073	0
	58	116	1.587906	145.6176	-0.1583237	1	145.6177	-0.0622952	-1.359522E-006	0.0001168	10	0.0006923	0.1008564	0
	59	121	1.258052	145.6408	-0.1584837	1	145.6409	-0.0623482	-1.392163E-006	0.0001155	10	0.000689	0.1003663	0
	60	127	0.997765	145.6598	-0.1625684	1	145.6599	-0.0639468	-1.436877E-006	0.0001161	10	0.0006875	0.1001549	0
	61	133	0.7927448	145.6568	-0.1574274	1	145.6569	-0.0619258	-1.475462E-006	0.000115	10	0.000687	0.1000674	0
	62	140	0.6290258	145.6403	-0.1534238	1	145.6404	-0.0603579	-1.529154E-006	0.0001157	10	0.0006868	0.1000315	0
	63	148	0.4988825	145.6228	-0.1465508	1	145.6229	-0.0576609	-1.443981E-006	0.0001153	10	0.0006868	0.1000161	0
	64	158	0.3985969	145.6234	-0.1444841	1	145.6235	-0.0568475	-1.513549E-006	0.0001161	10	0.0006868	0.1000087	0
