EXPLAIN
TAG	EISPOT
TITLE	LABEL	Potentiostatic EIS	Test Identifier
DATE	LABEL	2025/12/24	Date
TIME	LABEL	0:19:36	Time
NOTES	NOTES	1	Notes...
	
PSTAT	PSTAT	IFC1000-11123	Potentiostat
VDC	POTEN	0.00000E+000	T	DC Voltage (V)
FREQINIT	QUANT	1.00000E+006	Initial Freq. (Hz)
FREQFINAL	QUANT	5.00000E-001	Final Freq. (Hz)
PTSPERDEC	QUANT	1.00000E+001	Points/decade
VAC	QUANT	1.00000E+002	AC Voltage (mV rms)
AREA	QUANT	7.85000E-001	Sample Area (cm^2)
SPEED	SELECTOR	1	Optimize for:
DRIFTCOR	SELECTOR	0	Drift Correction
THD	SELECTOR	0	THD
ZGUESS	QUANT	1.00000E+002	Estimated Z (ohms)
EOC	QUANT	-8.644679E-006	Open Circuit (V)
SEQUENCER	TOGGLE	TRUE	Run as Sequence
PSTATMODEL	IQUANT	48	Pstat Model
PSTATSECTION	LABEL	IFC1000-11123	Pstat Section
PSTATSERIALNO	LABEL	11123	Pstat Serial Number
CTRLMODE	IQUANT	1	Control Mode
ELECTROMETER	IQUANT	0	RE=0 or CS=1
IESTAB	IQUANT	0	I/E Stability
CASPEED	IQUANT	3	Control Amp Speed
CONVENTION	IQUANT	1	Current Convention
ICHRANGE	IQUANT	2	Ich Range
ICHRANGEMODE	TOGGLE	F	Ich Auto Range
ICHOFFSETENABLE	TOGGLE	T	Ich Offset Enable
ICHOFFSET	QUANT	0	Ich Offset (V)
ICHFILTER	IQUANT	4	Ich Filter
VCHRANGE	IQUANT	2	Vch Range
VCHRANGEMODE	TOGGLE	F	Vch Auto Range
VCHOFFSETENABLE	TOGGLE	T	Vch Offset Enable
VCHOFFSET	QUANT	0	Vch Offset (V)
VCHFILTER	IQUANT	4	Vch Filter
IERANGELOWERLIMIT	IQUANT	4	I/E Range Lower Limit
IERANGEMODE	TOGGLE	F	I/E AutoRange
IERANGE	IQUANT	11	I/E Range
ACHSELECT	IQUANT	0	Ach Select
ACHRANGE	IQUANT	2	Ach Range
ACHOFFSETENABLE	TOGGLE	F	Ach Offset Enable
ACHOFFSET	QUANT	0	Ach Offset (V)
ACHFILTER	IQUANT	1	Ach Filter
SENSECABLEID	IQUANT	14	Sense Cable ID
PWRCABLEID	IQUANT	14	Power Cable ID
DCCALDATE	LABEL	5/23/2025	DC Calibration Date
ACCALDATE	LABEL	4/29/2023	AC Calibration Date
FRAMEWORKVERSION	LABEL	7.10.0	Framework Version
INSTRUMENTVERSION	LABEL	4.72	Instrument Version
COMMVERSION	LABEL	3.10	Communications Version
CPUPLDVERSION	LABEL	1.10	CPU PLD Version
CTRLPLDVERSION	LABEL	0.00	CTRL PLD Version
PSTATPLDVERSION	LABEL	0.00	PSTAT PLD Version
ZCURVE	TABLE
	Pt	Time	Freq	Zreal	Zimag	Zsig	Zmod	Zphz	Idc	Vdc	IERange	Imod	Vmod	Temp
	#	s	Hz	ohm	ohm	V	ohm	°	A	V	#	A	V	°C
	0	4	1000020	122.1891	-3.119702	1	122.2289	-1.462544	-1.230276E-005	0.0002553	10	0.0008531	0.1001128	0
	1	6	794355.5	123.3097	-4.238433	1	123.3825	-1.968611	-1.201798E-005	0.0002701	10	0.0012574	0.1504896	0
	2	8	630996.1	124.5083	-5.193881	1	124.6166	-2.388715	-1.246922E-005	0.0002643	10	0.0011177	0.1361129	0
	3	9	501269.5	125.7678	-6.018178	1	125.9117	-2.739599	-1.260545E-005	0.0002609	10	0.0010339	0.1278941	0
	4	11	398144.5	127.1073	-6.696479	1	127.2835	-3.015765	-1.277684E-005	0.000246	10	0.000981	0.1231356	0
	5	13	316230.5	128.4899	-7.259543	1	128.6948	-3.233714	-1.291326E-005	0.0002356	10	0.0009331	0.1187359	0
	6	15	251191.4	129.9202	-7.693585	1	130.1478	-3.388972	-1.301682E-005	0.000234	10	0.0008923	0.1150631	0
	7	17	199628.9	131.3964	-7.969393	1	131.6378	-3.470826	-1.328884E-005	0.0002113	10	0.0008511	0.1111912	0
	8	18	158496.1	132.9079	-8.13058	1	133.1564	-3.500681	-1.322465E-005	0.0002272	10	0.0008173	0.1081692	0
	9	20	125918	134.4205	-8.134211	1	134.6664	-3.462927	-1.315406E-005	0.0002174	10	0.0007881	0.1056238	0
	10	22	100019.5	135.9307	-7.969131	1	136.1641	-3.355207	-1.942023E-006	0.0001016	10	0.0007445	0.1009643	0
	11	24	79511.72	137.3193	-7.703518	1	137.5352	-3.210888	-1.827197E-006	0.0000977	10	0.0007599	0.1042434	0
	12	25	63105.47	138.6721	-7.284941	1	138.8633	-3.007187	-1.876795E-006	9.486265E-005	10	0.0007375	0.1022387	0
	13	27	50214.84	139.899	-6.764697	1	140.0625	-2.768332	-1.795252E-006	9.140425E-005	10	0.0007232	0.1011857	0
	14	29	39902.34	140.9792	-6.156385	1	141.1135	-2.500447	-1.803574E-006	9.144336E-005	10	0.000714	0.1006829	0
	15	31	31699.22	141.9004	-5.498646	1	142.0069	-2.219103	-1.862273E-006	9.160116E-005	10	0.0007072	0.1003771	0
	16	33	25136.72	142.6578	-4.824704	1	142.7393	-1.937012	-1.820144E-006	9.072421E-005	10	0.0007023	0.1002154	0
	17	34	19980.47	143.278	-4.179308	1	143.339	-1.670799	-1.920502E-006	8.982443E-005	10	0.0006986	0.1001178	0
	18	36	15878.91	143.7605	-3.575275	1	143.8049	-1.424633	-1.933108E-006	9.11252E-005	10	0.0006959	0.1000664	0
	19	38	12597.66	144.1375	-3.023257	1	144.1693	-1.201592	-1.927031E-006	8.883711E-005	10	0.000694	0.1000451	0
	20	40	10019.53	144.424	-2.550056	1	144.4465	-1.011551	-1.966597E-006	9.09692E-005	10	0.0006924	0.1000067	0
	21	41	7928.241	144.6434	-2.130173	1	144.6591	-0.8437374	-7.393646E-008	0.0001464	10	0.0006914	0.1000201	0
	22	43	6307.871	144.8114	-1.777689	1	144.8223	-0.7033215	-8.678001E-008	0.0001476	10	0.0006905	0.0999961	0
	23	45	5034.722	144.9337	-1.497632	1	144.9414	-0.5920289	-1.600701E-006	0.000118	10	0.0006715	0.0970904	0
	24	47	3993.056	145.0304	-1.25204	1	145.0358	-0.4946191	-1.560587E-006	0.0001189	10	0.0007027	0.101763	0
	25	48	3144.055	145.1111	-1.045242	1	145.1148	-0.4126973	-1.6306E-006	0.0001184	10	0.0006946	0.1007095	0
	26	50	2519.531	145.1687	-0.8914132	1	145.1714	-0.3518222	-1.69695E-006	0.0001182	10	0.0006913	0.1003036	0
	27	52	2000.762	145.2123	-0.7632606	1	145.2143	-0.3011537	-1.699737E-006	0.0001187	10	0.0006896	0.1001127	0
	28	54	1580.669	145.2542	-0.6598644	1	145.2557	-0.260283	-1.741809E-006	0.0001179	10	0.0006888	0.1000356	0
	29	55	1253.634	145.2886	-0.5799782	1	145.2898	-0.228718	-1.69328E-006	0.0001182	10	0.0006885	0.1000187	0
	30	57	1000.702	145.3283	-0.5194822	1	145.3292	-0.2048054	-1.713172E-006	0.0001175	10	0.0006883	0.1000213	0
	31	59	790.0281	145.367	-0.4732296	1	145.3678	-0.1865207	-1.717401E-006	0.0001209	10	0.0006878	0.0999842	0
	32	61	628.811	145.4042	-0.4373105	1	145.4048	-0.1723195	-1.656695E-006	0.0001199	10	0.0006875	0.0999693	0
	33	62	502.2321	145.4588	-0.417038	1	145.4594	-0.1642696	-1.708279E-006	0.0001159	10	0.0006606	0.095442	0
	34	64	400.1524	145.4942	-0.3863259	1	145.4947	-0.1521352	-1.674381E-006	0.0001158	10	0.0007087	0.102637	0
	35	66	315.5048	145.5343	-0.3661774	1	145.5348	-0.144161	-1.677619E-006	0.000116	10	0.000697	0.1011299	0
	36	67	252.0161	145.5774	-0.3512721	1	145.5778	-0.138252	-1.727352E-006	0.0001135	10	0.000691	0.1003982	0
	37	69	200.3205	145.6234	-0.3354623	1	145.6238	-0.131988	-1.769102E-006	0.0001129	10	0.0006877	0.1000203	0
	38	71	158.0056	145.6693	-0.3237374	1	145.6697	-0.1273347	-1.666436E-006	0.0001115	10	0.0006848	0.0996732	0
	39	72	125.558	145.7099	-0.307896	1	145.7102	-0.1210701	-1.682677E-006	0.0001148	10	0.0006807	0.0991302	0
	40	74	99.734	145.7482	-0.2962731	1	145.7485	-0.1164692	-1.683661E-006	0.0001131	10	0.0006716	0.0978605	0
	41	76	79.44915	145.7823	-0.2684387	1	145.7825	-0.1055024	-1.792716E-006	0.0001131	10	0.0007059	0.1028866	0
	42	78	62.91946	145.8234	-0.2657947	1	145.8236	-0.1044339	-1.636413E-006	0.0001132	10	0.0006859	0.1000104	0
	43	79	49.86702	145.8576	-0.2503552	1	145.8578	-0.0983444	-1.53669E-006	0.0001131	10	0.0006858	0.1000286	0
	44	81	38.42213	145.9022	-0.2293068	1	145.9024	-0.0900487	-1.415033E-006	0.0001143	10	0.0006854	0.1000035	0
	45	83	31.25	145.937	-0.2322143	1	145.9372	-0.0911687	-1.307129E-006	0.0001107	10	0.0006853	0.1000008	0
	46	85	24.93351	145.9762	-0.2191813	1	145.9763	-0.0860288	-1.274614E-006	0.0001124	10	0.000685	0.0999986	0
	47	87	20.03205	146.0051	-0.20679	1	146.0052	-0.0811491	-1.316458E-006	0.0001109	10	0.0006849	0.1	0
	48	89	15.625	146.027	-0.2020453	1	146.0271	-0.0792753	-1.399869E-006	0.0001129	10	0.0006848	0.0999996	0
	49	91	12.46675	146.0439	-0.1942816	1	146.044	-0.0762203	-1.44696E-006	0.0001127	10	0.0006847	0.1000007	0
	50	93	9.9734	146.0575	-0.1903401	1	146.0576	-0.074667	-1.510302E-006	0.000113	10	0.0006847	0.0999993	0
	51	95	7.971939	146.0618	-0.1843614	1	146.0619	-0.0723196	-1.576823E-006	0.0001119	10	0.0006846	0.0999996	0
	52	97	6.351626	146.0603	-0.1796053	1	146.0604	-0.0704546	-1.575135E-006	0.0001123	10	0.0006846	0.0999997	0
	53	99	5.013369	146.0583	-0.1771734	1	146.0584	-0.0695016	-1.550209E-006	0.0001103	10	0.0006847	0.0999998	0
	54	102	3.985969	146.051	-0.1748436	1	146.0511	-0.0685911	-1.551427E-006	0.0001126	10	0.0006847	0.0999995	0
	55	105	3.175813	146.0602	-0.1723403	1	146.0603	-0.0676048	-1.70227E-006	0.000112	10	0.0006846	0.0999999	0
	56	108	2.516103	146.065	-0.1530969	1	146.0651	-0.0600541	-1.705178E-006	0.0001155	10	0.0006596	0.0964881	0
	57	112	1.99553	146.0511	-0.1538911	1	146.0512	-0.0603714	-1.796432E-006	0.0001143	10	0.0006984	0.1020736	0
	58	117	1.587906	146.0645	-0.159202	1	146.0646	-0.0624491	-1.752518E-006	0.0001151	10	0.0006902	0.1008564	0
	59	122	1.258052	146.0822	-0.1604958	1	146.0823	-0.062949	-1.738855E-006	0.0001158	10	0.0006869	0.1003665	0
	60	128	0.997765	146.0934	-0.1584127	1	146.0935	-0.0621272	-1.681308E-006	0.0001169	10	0.0006855	0.1001548	0
	61	134	0.7927448	146.1019	-0.1558679	1	146.1019	-0.0611257	-1.426627E-006	0.0001172	10	0.0006849	0.1000678	0
	62	141	0.6290258	146.0994	-0.1522653	1	146.0995	-0.0597138	-1.219574E-006	0.000117	10	0.0006847	0.1000315	0
	63	149	0.4988825	146.068	-0.1480137	1	146.0681	-0.058059	-1.451206E-006	0.0001166	10	0.0006847	0.1000155	0
	64	159	0.3985969	146.0816	-0.1443281	1	146.0816	-0.056608	-1.665374E-006	0.0001156	10	0.0006846	0.1000088	0
