EXPLAIN
TAG	EISPOT
TITLE	LABEL	Potentiostatic EIS	Test Identifier
DATE	LABEL	2025/12/23	Date
TIME	LABEL	23:51:16	Time
NOTES	NOTES	1	Notes...
	
PSTAT	PSTAT	IFC1000-11123	Potentiostat
VDC	POTEN	0.00000E+000	T	DC Voltage (V)
FREQINIT	QUANT	1.00000E+006	Initial Freq. (Hz)
FREQFINAL	QUANT	5.00000E-001	Final Freq. (Hz)
PTSPERDEC	QUANT	1.00000E+001	Points/decade
VAC	QUANT	1.00000E+002	AC Voltage (mV rms)
AREA	QUANT	7.85000E-001	Sample Area (cm^2)
SPEED	SELECTOR	1	Optimize for:
DRIFTCOR	SELECTOR	0	Drift Correction
THD	SELECTOR	0	THD
ZGUESS	QUANT	1.00000E+002	Estimated Z (ohms)
EOC	QUANT	-9.013303E-006	Open Circuit (V)
SEQUENCER	TOGGLE	TRUE	Run as Sequence
PSTATMODEL	IQUANT	48	Pstat Model
PSTATSECTION	LABEL	IFC1000-11123	Pstat Section
PSTATSERIALNO	LABEL	11123	Pstat Serial Number
CTRLMODE	IQUANT	1	Control Mode
ELECTROMETER	IQUANT	0	RE=0 or CS=1
IESTAB	IQUANT	0	I/E Stability
CASPEED	IQUANT	3	Control Amp Speed
CONVENTION	IQUANT	1	Current Convention
ICHRANGE	IQUANT	2	Ich Range
ICHRANGEMODE	TOGGLE	F	Ich Auto Range
ICHOFFSETENABLE	TOGGLE	T	Ich Offset Enable
ICHOFFSET	QUANT	0	Ich Offset (V)
ICHFILTER	IQUANT	4	Ich Filter
VCHRANGE	IQUANT	2	Vch Range
VCHRANGEMODE	TOGGLE	F	Vch Auto Range
VCHOFFSETENABLE	TOGGLE	T	Vch Offset Enable
VCHOFFSET	QUANT	0	Vch Offset (V)
VCHFILTER	IQUANT	4	Vch Filter
IERANGELOWERLIMIT	IQUANT	4	I/E Range Lower Limit
IERANGEMODE	TOGGLE	F	I/E AutoRange
IERANGE	IQUANT	11	I/E Range
ACHSELECT	IQUANT	0	Ach Select
ACHRANGE	IQUANT	2	Ach Range
ACHOFFSETENABLE	TOGGLE	F	Ach Offset Enable
ACHOFFSET	QUANT	0	Ach Offset (V)
ACHFILTER	IQUANT	1	Ach Filter
SENSECABLEID	IQUANT	14	Sense Cable ID
PWRCABLEID	IQUANT	14	Power Cable ID
DCCALDATE	LABEL	5/23/2025	DC Calibration Date
ACCALDATE	LABEL	4/29/2023	AC Calibration Date
FRAMEWORKVERSION	LABEL	7.10.0	Framework Version
INSTRUMENTVERSION	LABEL	4.72	Instrument Version
COMMVERSION	LABEL	3.10	Communications Version
CPUPLDVERSION	LABEL	1.10	CPU PLD Version
CTRLPLDVERSION	LABEL	0.00	CTRL PLD Version
PSTATPLDVERSION	LABEL	0.00	PSTAT PLD Version
ZCURVE	TABLE
	Pt	Time	Freq	Zreal	Zimag	Zsig	Zmod	Zphz	Idc	Vdc	IERange	Imod	Vmod	Temp
	#	s	Hz	ohm	ohm	V	ohm	°	A	V	#	A	V	°C
	0	3	1000020	121.905	-3.008568	1	121.9421	-1.41375	-1.216019E-005	0.0002572	10	0.0008548	0.1000762	0
	1	5	794355.5	123.0304	-4.144008	1	123.1002	-1.929153	-1.184979E-005	0.0002739	10	0.0012599	0.1504411	0
	2	7	630996.1	124.2232	-5.093164	1	124.3276	-2.347818	-1.23687E-005	0.0002734	10	0.0011199	0.1360693	0
	3	9	501269.5	125.4891	-5.927598	1	125.629	-2.704412	-1.263526E-005	0.0002539	10	0.0010382	0.1281428	0
	4	11	398144.5	126.8321	-6.627405	1	127.0051	-2.991178	-1.271709E-005	0.0002481	10	0.0009829	0.1231027	0
	5	12	316230.5	128.2066	-7.19403	1	128.4083	-3.211657	-1.306583E-005	0.000234	10	0.000935	0.1187157	0
	6	14	251191.4	129.6607	-7.609801	1	129.8838	-3.358842	-1.305942E-005	0.0002366	10	0.000894	0.115047	0
	7	16	199628.9	131.148	-7.9028	1	131.3859	-3.448396	-1.31781E-005	0.0002155	10	0.0008487	0.1106695	0
	8	18	158496.1	132.648	-8.0525	1	132.8922	-3.473922	-1.321734E-005	0.0002277	10	0.0008222	0.1085911	0
	9	20	125918	134.1677	-8.059159	1	134.4095	-3.437502	-1.323873E-005	0.0002216	10	0.0007896	0.1056183	0
	10	21	100019.5	135.6465	-7.887044	1	135.8756	-3.327666	-2.061754E-006	0.0000988	10	0.0007462	0.1009836	0
	11	23	79511.72	137.0313	-7.613648	1	137.2426	-3.180164	-2.079123E-006	0.0000979	10	0.0007615	0.1042404	0
	12	25	63105.47	138.3664	-7.193882	1	138.5533	-2.976216	-2.09601E-006	9.307906E-005	10	0.0007391	0.1022373	0
	13	27	50214.84	139.5615	-6.670351	1	139.7208	-2.736373	-2.103024E-006	9.368802E-005	10	0.0007252	0.1012139	0
	14	28	39902.34	140.6183	-6.065094	1	140.7491	-2.469728	-2.00614E-006	9.135029E-005	10	0.0007156	0.1006504	0
	15	30	31699.22	141.5168	-5.414376	1	141.6203	-2.191045	-1.897324E-006	8.937117E-005	10	0.0007091	0.1003739	0
	16	32	25136.72	142.2639	-4.743753	1	142.3429	-1.909806	-1.807005E-006	8.964865E-005	10	0.0007042	0.1002141	0
	17	34	19980.47	142.8554	-4.097733	1	142.9141	-1.643049	-1.578509E-006	8.99618E-005	10	0.0007007	0.100117	0
	18	36	15878.91	143.3254	-3.507608	1	143.3683	-1.401922	-1.507415E-006	8.995153E-005	10	0.000698	0.1000639	0
	19	37	12597.66	143.6878	-2.972252	1	143.7185	-1.185022	-1.617527E-006	8.873898E-005	10	0.0006962	0.1000427	0
	20	39	10019.53	143.9495	-2.497544	1	143.9711	-0.99399	-1.631178E-006	9.087083E-005	10	0.0006949	0.1000347	0
	21	41	7928.241	144.1546	-2.083037	1	144.1696	-0.8278678	2.759821E-007	0.0001447	10	0.0006938	0.100019	0
	22	43	6307.871	144.3173	-1.746381	1	144.3279	-0.6933012	3.267282E-007	0.0001471	10	0.0006928	0.0999955	0
	23	44	5034.722	144.4279	-1.467041	1	144.4353	-0.5819676	-1.374E-006	0.0001179	10	0.0006737	0.0970586	0
	24	46	3993.056	144.5212	-1.228899	1	144.5264	-0.487188	-1.420189E-006	0.0001184	10	0.0007053	0.1017928	0
	25	48	3144.055	144.5956	-1.026178	1	144.5993	-0.4066146	-1.422949E-006	0.0001168	10	0.0006971	0.1007088	0
	26	50	2519.531	144.6499	-0.8765844	1	144.6526	-0.3472104	-1.381069E-006	0.0001168	10	0.0006938	0.1003017	0
	27	51	2000.762	144.6988	-0.7511404	1	144.7008	-0.2974232	-1.385192E-006	0.0001176	10	0.0006921	0.1001105	0
	28	53	1580.669	144.7451	-0.6504557	1	144.7465	-0.2574742	-1.489328E-006	0.0001189	10	0.0006912	0.1000329	0
	29	55	1253.634	144.7857	-0.5747021	1	144.7868	-0.2274247	-1.476963E-006	0.0001177	10	0.0006909	0.1000186	0
	30	57	1000.702	144.8199	-0.5148481	1	144.8208	-0.2036909	-1.481701E-006	0.0001192	10	0.0006907	0.1000199	0
	31	58	790.0281	144.8584	-0.46784	1	144.8592	-0.1850439	-1.544934E-006	0.0001177	10	0.0006902	0.0999801	0
	32	60	628.811	144.8968	-0.4323819	1	144.8975	-0.1709739	-1.550422E-006	0.0001181	10	0.0006902	0.1000004	0
	33	62	502.2321	144.9459	-0.4125346	1	144.9464	-0.1630707	-1.568763E-006	0.0001155	10	0.000663	0.0954422	0
	34	63	400.1524	144.9831	-0.3843205	1	144.9836	-0.151879	-1.611153E-006	0.0001151	10	0.0007112	0.1026348	0
	35	65	315.5048	145.0318	-0.3630306	1	145.0322	-0.1434174	-1.580582E-006	0.0001141	10	0.0006994	0.1011293	0
	36	67	252.0161	145.0758	-0.3469527	1	145.0762	-0.1370242	-1.590247E-006	0.0001133	10	0.0006931	0.1003637	0
	37	68	200.3205	145.1224	-0.3328058	1	145.1228	-0.1313948	-1.650306E-006	0.0001129	10	0.0006901	0.1000199	0
	38	70	158.0056	145.1648	-0.31754	1	145.1651	-0.1253312	-1.705079E-006	0.0001143	10	0.0006873	0.0997026	0
	39	72	125.558	145.2042	-0.3034897	1	145.2046	-0.1197531	-1.64632E-006	0.0001163	10	0.0006828	0.0990982	0
	40	74	99.734	145.2424	-0.2914125	1	145.2427	-0.1149574	-1.66976E-006	0.0001139	10	0.0006742	0.0978883	0
	41	75	79.44915	145.2787	-0.2610649	1	145.2789	-0.10296	-1.747143E-006	0.0001144	10	0.0007083	0.1028794	0
	42	77	62.91946	145.322	-0.2598815	1	145.3222	-0.1024628	-1.747567E-006	0.0001126	10	0.0006883	0.1000099	0
	43	79	49.86702	145.3556	-0.2488758	1	145.3558	-0.0981009	-1.703788E-006	0.000114	10	0.0006882	0.1000295	0
	44	81	38.42213	145.3902	-0.2270158	1	145.3904	-0.089463	-1.768989E-006	0.0001144	10	0.0006879	0.100003	0
	45	82	31.25	145.4209	-0.2291972	1	145.4211	-0.0903035	-1.745161E-006	0.0001145	10	0.0006877	0.1000003	0
	46	84	24.93351	145.4515	-0.2153649	1	145.4517	-0.0848357	-1.686503E-006	0.0001161	10	0.0006875	0.0999984	0
	47	86	20.03205	145.4798	-0.204556	1	145.4799	-0.0805623	-1.752532E-006	0.0001127	10	0.0006874	0.1000012	0
	48	88	15.625	145.5097	-0.1971101	1	145.5098	-0.0776139	-1.773903E-006	0.000113	10	0.0006872	0.0999992	0
	49	90	12.46675	145.5327	-0.1914686	1	145.5328	-0.0753806	-1.709008E-006	0.0001124	10	0.0006871	0.1	0
	50	92	9.9734	145.5532	-0.1871235	1	145.5533	-0.0736595	-1.594842E-006	0.0001143	10	0.000687	0.0999998	0
	51	94	7.971939	145.5642	-0.1812847	1	145.5643	-0.0713557	-1.623446E-006	0.0001133	10	0.000687	0.0999997	0
	52	96	6.351626	145.5766	-0.1792485	1	145.5767	-0.0705483	-1.596053E-006	0.0001129	10	0.0006869	0.1000002	0
	53	99	5.013369	145.5892	-0.1768019	1	145.5893	-0.0695793	-1.659349E-006	0.0001103	10	0.0006869	0.0999993	0
	54	102	3.985969	145.6037	-0.1755103	1	145.6038	-0.0690641	-1.703658E-006	0.000113	10	0.0006868	0.0999997	0
	55	104	3.175813	145.6194	-0.174581	1	145.6195	-0.0686911	-1.757116E-006	0.0001138	10	0.0006867	0.1000002	0
	56	108	2.516103	145.6331	-0.1549631	1	145.6331	-0.0609664	-1.82984E-006	0.000115	10	0.0006615	0.0964878	0
	57	112	1.99553	145.6434	-0.155587	1	145.6435	-0.0612075	-1.722071E-006	0.0001151	10	0.0007003	0.1020733	0
	58	116	1.587906	145.656	-0.1579531	1	145.6561	-0.062133	-1.499E-006	0.0001158	10	0.0006922	0.1008563	0
	59	121	1.258052	145.6691	-0.1617321	1	145.6692	-0.0636138	-1.404663E-006	0.0001154	10	0.0006889	0.1003671	0
	60	127	0.997765	145.6719	-0.1634275	1	145.672	-0.0642794	-1.480454E-006	0.000115	10	0.0006875	0.1001547	0
	61	133	0.7927448	145.6756	-0.1586543	1	145.6757	-0.0624004	-1.501877E-006	0.0001158	10	0.0006869	0.1000681	0
	62	140	0.6290258	145.6868	-0.156082	1	145.6869	-0.061384	-1.713603E-006	0.0001157	10	0.0006866	0.1000306	0
	63	148	0.4988825	145.6505	-0.1472387	1	145.6505	-0.0579205	-1.711184E-006	0.000115	10	0.0006867	0.1000162	0
	64	158	0.3985969	145.6402	-0.1426288	1	145.6402	-0.0561111	-1.738698E-006	0.0001157	10	0.0006867	0.1000082	0
