EXPLAIN
TAG	EISPOT
TITLE	LABEL	Potentiostatic EIS	Test Identifier
DATE	LABEL	2025/12/24	Date
TIME	LABEL	4:44:09	Time
NOTES	NOTES	1	Notes...
	
PSTAT	PSTAT	IFC1000-11123	Potentiostat
VDC	POTEN	0.00000E+000	T	DC Voltage (V)
FREQINIT	QUANT	1.00000E+006	Initial Freq. (Hz)
FREQFINAL	QUANT	5.00000E-001	Final Freq. (Hz)
PTSPERDEC	QUANT	1.00000E+001	Points/decade
VAC	QUANT	1.00000E+002	AC Voltage (mV rms)
AREA	QUANT	7.85000E-001	Sample Area (cm^2)
SPEED	SELECTOR	1	Optimize for:
DRIFTCOR	SELECTOR	0	Drift Correction
THD	SELECTOR	0	THD
ZGUESS	QUANT	1.00000E+002	Estimated Z (ohms)
EOC	QUANT	-7.128851E-006	Open Circuit (V)
SEQUENCER	TOGGLE	TRUE	Run as Sequence
PSTATMODEL	IQUANT	48	Pstat Model
PSTATSECTION	LABEL	IFC1000-11123	Pstat Section
PSTATSERIALNO	LABEL	11123	Pstat Serial Number
CTRLMODE	IQUANT	1	Control Mode
ELECTROMETER	IQUANT	0	RE=0 or CS=1
IESTAB	IQUANT	0	I/E Stability
CASPEED	IQUANT	3	Control Amp Speed
CONVENTION	IQUANT	1	Current Convention
ICHRANGE	IQUANT	2	Ich Range
ICHRANGEMODE	TOGGLE	F	Ich Auto Range
ICHOFFSETENABLE	TOGGLE	T	Ich Offset Enable
ICHOFFSET	QUANT	0	Ich Offset (V)
ICHFILTER	IQUANT	4	Ich Filter
VCHRANGE	IQUANT	2	Vch Range
VCHRANGEMODE	TOGGLE	F	Vch Auto Range
VCHOFFSETENABLE	TOGGLE	T	Vch Offset Enable
VCHOFFSET	QUANT	0	Vch Offset (V)
VCHFILTER	IQUANT	4	Vch Filter
IERANGELOWERLIMIT	IQUANT	4	I/E Range Lower Limit
IERANGEMODE	TOGGLE	F	I/E AutoRange
IERANGE	IQUANT	11	I/E Range
ACHSELECT	IQUANT	0	Ach Select
ACHRANGE	IQUANT	2	Ach Range
ACHOFFSETENABLE	TOGGLE	F	Ach Offset Enable
ACHOFFSET	QUANT	0	Ach Offset (V)
ACHFILTER	IQUANT	1	Ach Filter
SENSECABLEID	IQUANT	14	Sense Cable ID
PWRCABLEID	IQUANT	14	Power Cable ID
DCCALDATE	LABEL	5/23/2025	DC Calibration Date
ACCALDATE	LABEL	4/29/2023	AC Calibration Date
FRAMEWORKVERSION	LABEL	7.10.0	Framework Version
INSTRUMENTVERSION	LABEL	4.72	Instrument Version
COMMVERSION	LABEL	3.10	Communications Version
CPUPLDVERSION	LABEL	1.10	CPU PLD Version
CTRLPLDVERSION	LABEL	0.00	CTRL PLD Version
PSTATPLDVERSION	LABEL	0.00	PSTAT PLD Version
ZCURVE	TABLE
	Pt	Time	Freq	Zreal	Zimag	Zsig	Zmod	Zphz	Idc	Vdc	IERange	Imod	Vmod	Temp
	#	s	Hz	ohm	ohm	V	ohm	°	A	V	#	A	V	°C
	0	4	1000020	123.1473	-3.845675	1	123.2074	-1.788666	-1.215158E-005	0.0002577	10	0.0008438	0.0998208	0
	1	6	794355.5	124.3836	-4.925879	1	124.4811	-2.26786	-1.192877E-005	0.0002599	10	0.0012476	0.1506469	0
	2	7	630996.1	125.7053	-5.828239	1	125.8403	-2.654579	-1.238157E-005	0.0002668	10	0.0011068	0.1361183	0
	3	9	501269.5	127.0717	-6.609687	1	127.2435	-2.97758	-1.269903E-005	0.0002559	10	0.0010245	0.1280728	0
	4	11	398144.5	128.5015	-7.266352	1	128.7068	-3.236449	-1.285507E-005	0.0002533	10	0.0009687	0.122951	0
	5	13	316230.5	129.9505	-7.796004	1	130.1842	-3.433179	-1.298479E-005	0.0002412	10	0.0009234	0.1188649	0
	6	14	251191.4	131.4528	-8.207375	1	131.7087	-3.572677	-1.318802E-005	0.0002297	10	0.000879	0.114704	0
	7	16	199628.9	132.9824	-8.492951	1	133.2533	-3.654245	-1.330006E-005	0.0002118	10	0.0008413	0.1112552	0
	8	18	158496.1	134.5474	-8.645278	1	134.8249	-3.676458	-1.320663E-005	0.0002256	10	0.0008073	0.1081745	0
	9	20	125918	136.1349	-8.680172	1	136.4113	-3.64833	-1.324474E-005	0.0002186	10	0.0007779	0.1056134	0
	10	22	100019.5	137.7185	-8.541298	1	137.9832	-3.548936	-2.070068E-006	0.0001001	10	0.0007347	0.1009664	0
	11	23	79511.72	139.2134	-8.301672	1	139.4607	-3.41266	-2.141446E-006	0.0000984	10	0.0007492	0.1042098	0
	12	25	63105.47	140.6763	-7.903547	1	140.8982	-3.215639	-2.17497E-006	0.000095	10	0.000727	0.1022618	0
	13	27	50214.84	142.012	-7.393818	1	142.2044	-2.980398	-2.107152E-006	9.478279E-005	10	0.0007122	0.101168	0
	14	29	39902.34	143.2073	-6.773789	1	143.3674	-2.708106	-2.074997E-006	9.206939E-005	10	0.0007026	0.1006628	0
	15	31	31699.22	144.2516	-6.097723	1	144.3804	-2.420534	-2.072757E-006	9.329795E-005	10	0.0006956	0.1003819	0
	16	32	25136.72	145.1251	-5.389307	1	145.2252	-2.126735	-2.073067E-006	9.181973E-005	10	0.0006903	0.1002214	0
	17	34	19980.47	145.8398	-4.692469	1	145.9153	-1.842885	-2.163854E-006	9.011815E-005	10	0.0006863	0.100124	0
	18	36	15878.91	146.4075	-4.041622	1	146.4633	-1.581265	-2.163053E-006	8.802535E-005	10	0.0006833	0.1000677	0
	19	38	12597.66	146.8476	-3.437334	1	146.8879	-1.340905	-2.029382E-006	8.846569E-005	10	0.0006812	0.1000465	0
	20	39	10019.53	147.1868	-2.902647	1	147.2154	-1.129774	-2.02123E-006	8.926709E-005	10	0.0006794	0.1000071	0
	21	41	7928.241	147.4544	-2.430963	1	147.4744	-0.9445042	-1.103858E-007	0.000148	10	0.0006782	0.1000206	0
	22	43	6307.871	147.6462	-2.0331	1	147.6602	-0.7889178	-1.373918E-007	0.000147	10	0.0006772	0.0999971	0
	23	45	5034.722	147.7915	-1.711447	1	147.8014	-0.6634638	-1.730121E-006	0.0001181	10	0.0006584	0.0970616	0
	24	46	3993.056	147.9032	-1.429175	1	147.9101	-0.5536265	-1.805783E-006	0.0001191	10	0.000689	0.101764	0
	25	48	3144.055	147.9948	-1.189435	1	147.9996	-0.4604765	-1.810916E-006	0.0001188	10	0.0006813	0.100742	0
	26	50	2519.531	148.0582	-1.009519	1	148.0616	-0.390659	-1.911051E-006	0.0001181	10	0.0006776	0.1002719	0
	27	52	2000.762	148.1158	-0.8613479	1	148.1183	-0.3331924	-1.935598E-006	0.0001187	10	0.0006761	0.1001119	0
	28	53	1580.669	148.1631	-0.7381586	1	148.1649	-0.2854492	-1.902393E-006	0.0001177	10	0.0006755	0.1000666	0
	29	55	1253.634	148.2041	-0.6451789	1	148.2055	-0.249425	-1.860678E-006	0.0001197	10	0.000675	0.1000199	0
	30	57	1000.702	148.241	-0.5757695	1	148.2421	-0.2225363	-1.737302E-006	0.0001209	10	0.0006745	0.0999889	0
	31	59	790.0281	148.2777	-0.5174026	1	148.2786	-0.199928	-1.628848E-006	0.0001208	10	0.0006743	0.0999834	0
	32	60	628.811	148.3221	-0.4763747	1	148.3229	-0.1840195	-1.557761E-006	0.0001196	10	0.0006742	0.1000026	0
	33	62	502.2321	148.3792	-0.4503547	1	148.3799	-0.1739013	-1.690224E-006	0.0001186	10	0.0006476	0.0954431	0
	34	64	400.1524	148.4209	-0.4198273	1	148.4215	-0.1620679	-1.647748E-006	0.0001179	10	0.0006947	0.102636	0
	35	65	315.5048	148.4707	-0.3983129	1	148.4713	-0.153711	-1.691246E-006	0.0001172	10	0.0006832	0.1011327	0
	36	67	252.0161	148.519	-0.3803444	1	148.5195	-0.1467293	-1.749241E-006	0.0001131	10	0.0006771	0.1003672	0
	37	69	200.3205	148.5681	-0.3667266	1	148.5686	-0.141429	-1.752679E-006	0.0001127	10	0.0006741	0.1000223	0
	38	70	158.0056	148.6163	-0.351764	1	148.6168	-0.1356146	-1.817513E-006	0.0001139	10	0.0006712	0.0996751	0
	39	72	125.558	148.6678	-0.339042	1	148.6681	-0.1306648	-1.767486E-006	0.000117	10	0.0006671	0.0991349	0
	40	74	99.734	148.7223	-0.3276819	1	148.7227	-0.1262403	-1.834873E-006	0.0001126	10	0.0006582	0.0978651	0
	41	76	79.44915	148.7751	-0.297065	1	148.7754	-0.1144045	-1.927504E-006	0.0001138	10	0.0006917	0.1028864	0
	42	77	62.91946	148.833	-0.2948772	1	148.8333	-0.1135178	-1.945343E-006	0.0001126	10	0.0006721	0.1000117	0
	43	79	49.86702	148.8778	-0.2793952	1	148.8781	-0.1075254	-1.936173E-006	0.0001142	10	0.0006719	0.1000279	0
	44	81	38.42213	148.9239	-0.2565184	1	148.9241	-0.0986907	-1.905176E-006	0.0001136	10	0.0006715	0.1000013	0
	45	83	31.25	148.9589	-0.2539346	1	148.9591	-0.0976737	-1.925958E-006	0.0001149	10	0.0006714	0.1000026	0
	46	84	24.93351	148.9835	-0.2410063	1	148.9837	-0.0926857	-1.869062E-006	0.000114	10	0.0006712	0.0999983	0
	47	86	20.03205	149.0111	-0.2275724	1	149.0113	-0.0875031	-1.906759E-006	0.0001122	10	0.0006711	0.1000008	0
	48	88	15.625	149.043	-0.2196494	1	149.0431	-0.0844386	-1.849251E-006	0.0001124	10	0.0006709	0.0999989	0
	49	90	12.46675	149.0703	-0.2077213	1	149.0704	-0.0798385	-1.845042E-006	0.0001154	10	0.0006708	0.1	0
	50	92	9.9734	149.1057	-0.1989913	1	149.1058	-0.0764649	-1.746341E-006	0.000114	10	0.0006707	0.0999997	0
	51	94	7.971939	149.1313	-0.1921258	1	149.1314	-0.0738141	-1.597859E-006	0.0001148	10	0.0006705	0.0999991	0
	52	97	6.351626	149.157	-0.1869927	1	149.1571	-0.0718296	-1.662071E-006	0.0001136	10	0.0006704	0.0999996	0
	53	99	5.013369	149.1678	-0.1812786	1	149.1679	-0.0696296	-1.681413E-006	0.0001121	10	0.0006704	0.1	0
	54	102	3.985969	149.1823	-0.1756193	1	149.1824	-0.0674493	-1.722972E-006	0.0001156	10	0.0006703	0.0999998	0
	55	105	3.175813	149.1892	-0.1746555	1	149.1893	-0.067076	-1.73197E-006	0.0001153	10	0.0006703	0.1000001	0
	56	108	2.516103	149.2016	-0.1514775	1	149.2016	-0.0581697	-1.642413E-006	0.0001161	10	0.0006457	0.096487	0
	57	112	1.99553	149.2111	-0.1508352	1	149.2112	-0.0579194	-1.601586E-006	0.0001181	10	0.0006836	0.1020732	0
	58	116	1.587906	149.2128	-0.1553585	1	149.2128	-0.0596557	-1.625712E-006	0.0001182	10	0.0006757	0.1008566	0
	59	121	1.258052	149.2444	-0.1586452	1	149.2445	-0.0609048	-1.682283E-006	0.0001178	10	0.0006724	0.1003662	0
	60	127	0.997765	149.2504	-0.1556393	1	149.2505	-0.0597484	-1.734371E-006	0.0001167	10	0.000671	0.1001552	0
	61	133	0.7927448	149.2516	-0.1521658	1	149.2517	-0.0584145	-1.792215E-006	0.0001174	10	0.0006704	0.1000674	0
	62	140	0.6290258	149.2488	-0.14827	1	149.2489	-0.05692	-1.820449E-006	0.0001158	10	0.0006702	0.1000321	0
	63	149	0.4988825	149.2889	-0.1438019	1	149.289	-0.0551899	-1.84426E-006	0.000116	10	0.0006699	0.1000159	0
	64	159	0.3985969	149.3079	-0.140263	1	149.3079	-0.0538248	-1.838721E-006	0.0001169	10	0.0006698	0.1000084	0
