EXPLAIN
TAG	EISPOT
TITLE	LABEL	Potentiostatic EIS	Test Identifier
DATE	LABEL	2025/12/23	Date
TIME	LABEL	21:57:53	Time
NOTES	NOTES	1	Notes...
	
PSTAT	PSTAT	IFC1000-11123	Potentiostat
VDC	POTEN	0.00000E+000	T	DC Voltage (V)
FREQINIT	QUANT	1.00000E+006	Initial Freq. (Hz)
FREQFINAL	QUANT	5.00000E-001	Final Freq. (Hz)
PTSPERDEC	QUANT	1.00000E+001	Points/decade
VAC	QUANT	1.00000E+002	AC Voltage (mV rms)
AREA	QUANT	7.85000E-001	Sample Area (cm^2)
SPEED	SELECTOR	1	Optimize for:
DRIFTCOR	SELECTOR	0	Drift Correction
THD	SELECTOR	0	THD
ZGUESS	QUANT	1.00000E+002	Estimated Z (ohms)
EOC	QUANT	-8.096752E-006	Open Circuit (V)
SEQUENCER	TOGGLE	TRUE	Run as Sequence
PSTATMODEL	IQUANT	48	Pstat Model
PSTATSECTION	LABEL	IFC1000-11123	Pstat Section
PSTATSERIALNO	LABEL	11123	Pstat Serial Number
CTRLMODE	IQUANT	1	Control Mode
ELECTROMETER	IQUANT	0	RE=0 or CS=1
IESTAB	IQUANT	0	I/E Stability
CASPEED	IQUANT	3	Control Amp Speed
CONVENTION	IQUANT	1	Current Convention
ICHRANGE	IQUANT	2	Ich Range
ICHRANGEMODE	TOGGLE	F	Ich Auto Range
ICHOFFSETENABLE	TOGGLE	T	Ich Offset Enable
ICHOFFSET	QUANT	0	Ich Offset (V)
ICHFILTER	IQUANT	4	Ich Filter
VCHRANGE	IQUANT	2	Vch Range
VCHRANGEMODE	TOGGLE	F	Vch Auto Range
VCHOFFSETENABLE	TOGGLE	T	Vch Offset Enable
VCHOFFSET	QUANT	0	Vch Offset (V)
VCHFILTER	IQUANT	4	Vch Filter
IERANGELOWERLIMIT	IQUANT	4	I/E Range Lower Limit
IERANGEMODE	TOGGLE	F	I/E AutoRange
IERANGE	IQUANT	11	I/E Range
ACHSELECT	IQUANT	0	Ach Select
ACHRANGE	IQUANT	2	Ach Range
ACHOFFSETENABLE	TOGGLE	F	Ach Offset Enable
ACHOFFSET	QUANT	0	Ach Offset (V)
ACHFILTER	IQUANT	1	Ach Filter
SENSECABLEID	IQUANT	14	Sense Cable ID
PWRCABLEID	IQUANT	14	Power Cable ID
DCCALDATE	LABEL	5/23/2025	DC Calibration Date
ACCALDATE	LABEL	4/29/2023	AC Calibration Date
FRAMEWORKVERSION	LABEL	7.10.0	Framework Version
INSTRUMENTVERSION	LABEL	4.72	Instrument Version
COMMVERSION	LABEL	3.10	Communications Version
CPUPLDVERSION	LABEL	1.10	CPU PLD Version
CTRLPLDVERSION	LABEL	0.00	CTRL PLD Version
PSTATPLDVERSION	LABEL	0.00	PSTAT PLD Version
ZCURVE	TABLE
	Pt	Time	Freq	Zreal	Zimag	Zsig	Zmod	Zphz	Idc	Vdc	IERange	Imod	Vmod	Temp
	#	s	Hz	ohm	ohm	V	ohm	°	A	V	#	A	V	°C
	0	4	1000020	121.1613	-2.684343	1	121.1911	-1.269187	-1.220867E-005	0.0002644	10	0.0008616	0.1002516	0
	1	6	794355.5	122.2225	-3.845325	1	122.283	-1.802026	-1.195558E-005	0.0002674	10	0.0012668	0.1502555	0
	2	7	630996.1	123.3704	-4.80259	1	123.4638	-2.229298	-1.249973E-005	0.0002629	10	0.0011288	0.1361924	0
	3	9	501269.5	124.5967	-5.662358	1	124.7253	-2.602044	-1.265995E-005	0.0002501	10	0.0010449	0.1280418	0
	4	11	398144.5	125.903	-6.368695	1	126.064	-2.895789	-1.29496E-005	0.0002466	10	0.0009896	0.1230238	0
	5	13	316230.5	127.2769	-6.945259	1	127.4663	-3.123424	-1.30542E-005	0.0002394	10	0.0009445	0.1190408	0
	6	14	251191.4	128.6744	-7.36087	1	128.8848	-3.27406	-1.287298E-005	0.000232	10	0.0008971	0.1145542	0
	7	16	199628.9	130.1387	-7.634412	1	130.3625	-3.357332	-1.306265E-005	0.0002098	10	0.0008591	0.1111465	0
	8	18	158496.1	131.6283	-7.767416	1	131.8572	-3.377122	-1.31274E-005	0.0002231	10	0.0008278	0.1084822	0
	9	20	125918	133.0874	-7.734704	1	133.312	-3.326144	-1.309127E-005	0.0002191	10	0.0007961	0.1056238	0
	10	22	100019.5	134.5395	-7.548239	1	134.751	-3.211172	-1.992434E-006	0.0000993	10	0.0007526	0.1009977	0
	11	23	79511.72	135.8673	-7.251537	1	136.0607	-3.055103	-1.915773E-006	0.0000951	10	0.000768	0.104224	0
	12	25	63105.47	137.1408	-6.814694	1	137.31	-2.844757	-2.026408E-006	9.290641E-005	10	0.000746	0.102255	0
	13	27	50214.84	138.268	-6.284581	1	138.4107	-2.602427	-2.004326E-006	8.985656E-005	10	0.000732	0.1012	0
	14	29	39902.34	139.248	-5.679411	1	139.3638	-2.335588	-2.121982E-006	9.004318E-005	10	0.0007229	0.1006731	0
	15	31	31699.22	140.0858	-5.044414	1	140.1766	-2.062299	-2.00562E-006	8.814427E-005	10	0.0007163	0.1003651	0
	16	32	25136.72	140.7685	-4.403331	1	140.8373	-1.791666	-2.040101E-006	8.802665E-005	10	0.0007117	0.1002092	0
	17	34	19980.47	141.3105	-3.788978	1	141.3612	-1.535912	-2.031337E-006	8.652976E-005	10	0.0007083	0.1001125	0
	18	36	15878.91	141.7415	-3.23142	1	141.7783	-1.306002	-1.991393E-006	8.831942E-005	10	0.000706	0.10009	0
	19	38	12597.66	142.0661	-2.723706	1	142.0922	-1.098346	-1.937516E-006	9.001943E-005	10	0.0007041	0.1000383	0
	20	39	10019.53	142.314	-2.290171	1	142.3325	-0.9219455	-1.982472E-006	8.92774E-005	10	0.0007028	0.1000313	0
	21	41	7928.241	142.515	-1.912836	1	142.5278	-0.7689777	-1.246717E-007	0.000145	10	0.0007017	0.1000149	0
	22	43	6307.871	142.6581	-1.594189	1	142.667	-0.6402473	-3.718878E-008	0.0001435	10	0.0007009	0.0999901	0
	23	45	5034.722	142.7783	-1.343778	1	142.7846	-0.5392311	-1.659324E-006	0.0001169	10	0.0006814	0.097054	0
	24	46	3993.056	142.8749	-1.127239	1	142.8793	-0.4520366	-1.711588E-006	0.0001176	10	0.0007134	0.1017869	0
	25	48	3144.055	142.9576	-0.9438325	1	142.9607	-0.3782718	-1.733334E-006	0.0001161	10	0.0007052	0.1007352	0
	26	50	2519.531	143.0218	-0.8080215	1	143.0241	-0.323697	-1.769005E-006	0.000117	10	0.0007014	0.1002655	0
	27	52	2000.762	143.0802	-0.6929803	1	143.0819	-0.2774985	-1.769197E-006	0.0001167	10	0.0007001	0.1001361	0
	28	53	1580.669	143.1312	-0.6020196	1	143.1324	-0.2409886	-1.706712E-006	0.0001191	10	0.000699	0.1000303	0
	29	55	1253.634	143.177	-0.5300937	1	143.178	-0.2121289	-1.741186E-006	0.0001162	10	0.0006986	0.1000137	0
	30	57	1000.702	143.2191	-0.4764817	1	143.2199	-0.1906191	-1.791534E-006	0.0001174	10	0.0006984	0.1000142	0
	31	59	790.0281	143.2656	-0.4339431	1	143.2662	-0.173545	-1.859512E-006	0.000119	10	0.0006979	0.0999752	0
	32	60	628.811	143.3121	-0.3982793	1	143.3126	-0.1592306	-1.837986E-006	0.0001195	10	0.0006978	0.0999964	0
	33	62	502.2321	143.3611	-0.3778409	1	143.3616	-0.1510077	-1.948118E-006	0.0001163	10	0.0006702	0.0954376	0
	34	64	400.1524	143.4003	-0.350918	1	143.4007	-0.1402095	-1.957996E-006	0.0001161	10	0.000719	0.1026301	0
	35	65	315.5048	143.4488	-0.3290642	1	143.4492	-0.1314333	-2.012274E-006	0.0001156	10	0.0007071	0.101124	0
	36	67	252.0161	143.494	-0.310811	1	143.4943	-0.1241037	-2.029279E-006	0.0001138	10	0.000701	0.1003906	0
	37	69	200.3205	143.5364	-0.2947306	1	143.5367	-0.1176482	-1.997332E-006	0.0001141	10	0.0006976	0.1000132	0
	38	70	158.0056	143.5806	-0.2809889	1	143.5808	-0.1121284	-2.020431E-006	0.0001145	10	0.0006949	0.0996952	0
	39	72	125.558	143.6243	-0.2693016	1	143.6246	-0.1074318	-1.938525E-006	0.0001159	10	0.0006905	0.0991203	0
	40	74	99.734	143.6674	-0.2567985	1	143.6676	-0.1024133	-1.929477E-006	0.0001138	10	0.0006815	0.0978752	0
	41	76	79.44915	143.7041	-0.2296877	1	143.7043	-0.0915779	-1.979362E-006	0.0001141	10	0.0007161	0.1028914	0
	42	77	62.91946	143.7372	-0.232209	1	143.7374	-0.0925618	-2.073087E-006	0.0001105	10	0.0006959	0.1000089	0
	43	79	49.86702	143.7679	-0.2223913	1	143.7681	-0.0886294	-2.021414E-006	0.0001125	10	0.0006958	0.1000298	0
	44	81	38.42213	143.801	-0.2031638	1	143.8011	-0.0809481	-2.12344E-006	0.0001121	10	0.0006954	0.1000014	0
	45	83	31.25	143.8212	-0.2039592	1	143.8214	-0.0812536	-2.094072E-006	0.0001126	10	0.0006953	0.100002	0
	46	85	24.93351	143.8436	-0.1984115	1	143.8437	-0.0790313	-2.053825E-006	0.0001118	10	0.0006952	0.0999984	0
	47	86	20.03205	143.864	-0.1883533	1	143.8641	-0.0750142	-2.072963E-006	0.0001096	10	0.0006951	0.0999989	0
	48	88	15.625	143.8944	-0.1838279	1	143.8945	-0.0731965	-2.025817E-006	0.0001124	10	0.000695	0.1000004	0
	49	90	12.46675	143.9229	-0.1824382	1	143.923	-0.0726287	-1.976724E-006	0.0001147	10	0.0006948	0.0999999	0
	50	92	9.9734	143.9519	-0.1794569	1	143.952	-0.0714275	-1.969166E-006	0.0001138	10	0.0006947	0.0999996	0
	51	94	7.971939	143.9747	-0.1764927	1	143.9748	-0.0702365	-1.958801E-006	0.0001146	10	0.0006946	0.1000001	0
	52	97	6.351626	143.9944	-0.1767184	1	143.9945	-0.0703167	-1.941311E-006	0.0001139	10	0.0006945	0.0999996	0
	53	99	5.013369	144.0143	-0.1757498	1	144.0144	-0.0699216	-1.976606E-006	0.000111	10	0.0006944	0.0999999	0
	54	102	3.985969	144.0375	-0.1761326	1	144.0376	-0.0700626	-1.906025E-006	0.0001137	10	0.0006943	0.1	0
	55	105	3.175813	144.0605	-0.1779292	1	144.0606	-0.070766	-1.878935E-006	0.0001142	10	0.0006942	0.0999997	0
	56	108	2.516103	144.0744	-0.1583752	1	144.0745	-0.0629829	-1.939716E-006	0.0001152	10	0.0006687	0.0964904	0
	57	112	1.99553	144.0728	-0.1585742	1	144.0729	-0.0630627	-1.860835E-006	0.0001158	10	0.0007079	0.1020726	0
	58	116	1.587906	144.0963	-0.1620449	1	144.0964	-0.0644325	-1.882634E-006	0.0001176	10	0.0006997	0.1008564	0
	59	122	1.258052	144.1388	-0.1660741	1	144.1389	-0.0660151	-1.803681E-006	0.0001162	10	0.0006962	0.1003666	0
	60	127	0.997765	144.1799	-0.1630147	1	144.18	-0.0647805	-1.641931E-006	0.0001155	10	0.0006946	0.100154	0
	61	133	0.7927448	144.178	-0.1602023	1	144.1781	-0.0636637	-1.725705E-006	0.0001165	10	0.000694	0.1000683	0
	62	140	0.6290258	144.1636	-0.1569342	1	144.1637	-0.0623713	-1.80921E-006	0.0001177	10	0.0006938	0.1000317	0
	63	149	0.4988825	144.1889	-0.1514597	1	144.1889	-0.0601849	-1.831673E-006	0.000117	10	0.0006936	0.1000153	0
	64	159	0.3985969	144.176	-0.1446598	1	144.1761	-0.057488	-1.729309E-006	0.0001172	10	0.0006936	0.1000086	0
