EXPLAIN
TAG	EISPOT
TITLE	LABEL	Potentiostatic EIS	Test Identifier
DATE	LABEL	2025/12/24	Date
TIME	LABEL	2:50:47	Time
NOTES	NOTES	1	Notes...
	
PSTAT	PSTAT	IFC1000-11123	Potentiostat
VDC	POTEN	0.00000E+000	T	DC Voltage (V)
FREQINIT	QUANT	1.00000E+006	Initial Freq. (Hz)
FREQFINAL	QUANT	5.00000E-001	Final Freq. (Hz)
PTSPERDEC	QUANT	1.00000E+001	Points/decade
VAC	QUANT	1.00000E+002	AC Voltage (mV rms)
AREA	QUANT	7.85000E-001	Sample Area (cm^2)
SPEED	SELECTOR	1	Optimize for:
DRIFTCOR	SELECTOR	0	Drift Correction
THD	SELECTOR	0	THD
ZGUESS	QUANT	1.00000E+002	Estimated Z (ohms)
EOC	QUANT	-6.75269E-006	Open Circuit (V)
SEQUENCER	TOGGLE	TRUE	Run as Sequence
PSTATMODEL	IQUANT	48	Pstat Model
PSTATSECTION	LABEL	IFC1000-11123	Pstat Section
PSTATSERIALNO	LABEL	11123	Pstat Serial Number
CTRLMODE	IQUANT	1	Control Mode
ELECTROMETER	IQUANT	0	RE=0 or CS=1
IESTAB	IQUANT	0	I/E Stability
CASPEED	IQUANT	3	Control Amp Speed
CONVENTION	IQUANT	1	Current Convention
ICHRANGE	IQUANT	2	Ich Range
ICHRANGEMODE	TOGGLE	F	Ich Auto Range
ICHOFFSETENABLE	TOGGLE	T	Ich Offset Enable
ICHOFFSET	QUANT	0	Ich Offset (V)
ICHFILTER	IQUANT	4	Ich Filter
VCHRANGE	IQUANT	2	Vch Range
VCHRANGEMODE	TOGGLE	F	Vch Auto Range
VCHOFFSETENABLE	TOGGLE	T	Vch Offset Enable
VCHOFFSET	QUANT	0	Vch Offset (V)
VCHFILTER	IQUANT	4	Vch Filter
IERANGELOWERLIMIT	IQUANT	4	I/E Range Lower Limit
IERANGEMODE	TOGGLE	F	I/E AutoRange
IERANGE	IQUANT	11	I/E Range
ACHSELECT	IQUANT	0	Ach Select
ACHRANGE	IQUANT	2	Ach Range
ACHOFFSETENABLE	TOGGLE	F	Ach Offset Enable
ACHOFFSET	QUANT	0	Ach Offset (V)
ACHFILTER	IQUANT	1	Ach Filter
SENSECABLEID	IQUANT	14	Sense Cable ID
PWRCABLEID	IQUANT	14	Power Cable ID
DCCALDATE	LABEL	5/23/2025	DC Calibration Date
ACCALDATE	LABEL	4/29/2023	AC Calibration Date
FRAMEWORKVERSION	LABEL	7.10.0	Framework Version
INSTRUMENTVERSION	LABEL	4.72	Instrument Version
COMMVERSION	LABEL	3.10	Communications Version
CPUPLDVERSION	LABEL	1.10	CPU PLD Version
CTRLPLDVERSION	LABEL	0.00	CTRL PLD Version
PSTATPLDVERSION	LABEL	0.00	PSTAT PLD Version
ZCURVE	TABLE
	Pt	Time	Freq	Zreal	Zimag	Zsig	Zmod	Zphz	Idc	Vdc	IERange	Imod	Vmod	Temp
	#	s	Hz	ohm	ohm	V	ohm	°	A	V	#	A	V	°C
	0	3	1000020	122.6386	-3.495612	1	122.6884	-1.632681	-1.253793E-005	0.0002656	10	0.0008492	0.1000362	0
	1	5	794355.5	123.8102	-4.588291	1	123.8952	-2.122357	-1.225371E-005	0.000265	10	0.0012524	0.1505166	0
	2	7	630996.1	125.0637	-5.513488	1	125.1851	-2.524276	-1.272386E-005	0.0002631	10	0.0011115	0.1359859	0
	3	9	501269.5	126.4057	-6.302732	1	126.5627	-2.854469	-1.297805E-005	0.0002594	10	0.0010315	0.1282589	0
	4	10	398144.5	127.7539	-6.978843	1	127.9444	-3.126802	-1.308358E-005	0.0002522	10	0.0009737	0.1228534	0
	5	12	316230.5	129.1628	-7.517237	1	129.3814	-3.33084	-1.32984E-005	0.0002336	10	0.0009286	0.1187877	0
	6	14	251191.4	130.6317	-7.944231	1	130.873	-3.480098	-1.341106E-005	0.0002325	10	0.0008877	0.1150985	0
	7	16	199628.9	132.1373	-8.231953	1	132.3934	-3.564834	-1.351157E-005	0.0002143	10	0.0008426	0.1107095	0
	8	17	158496.1	133.6851	-8.390414	1	133.9481	-3.591318	-1.345867E-005	0.0002238	10	0.0008155	0.1085709	0
	9	19	125918	135.2263	-8.393189	1	135.4866	-3.551661	-1.358238E-005	0.0002205	10	0.0007833	0.1056167	0
	10	21	100019.5	136.7763	-8.274643	1	137.0264	-3.462039	-2.324578E-006	0.0001004	10	0.0007399	0.1009778	0
	11	23	79511.72	138.2221	-8.029054	1	138.4551	-3.324466	-2.406362E-006	0.0000953	10	0.0007545	0.104198	0
	12	25	63105.47	139.6364	-7.629745	1	139.8447	-3.127536	-2.431291E-006	9.436859E-005	10	0.0007324	0.10225	0
	13	26	50214.84	140.9203	-7.115334	1	141.0999	-2.890517	-2.40064E-006	9.239733E-005	10	0.000718	0.1011921	0
	14	28	39902.34	142.071	-6.500339	1	142.2197	-2.619693	-2.349218E-006	9.236584E-005	10	0.0007085	0.10069	0
	15	30	31699.22	143.0545	-5.8359	1	143.1735	-2.336083	-2.243845E-006	9.115483E-005	10	0.0007012	0.1003485	0
	16	32	25136.72	143.8909	-5.143308	1	143.9828	-2.047137	-2.18636E-006	9.085092E-005	10	0.0006962	0.1002183	0
	17	34	19980.47	144.5694	-4.469687	1	144.6385	-1.770863	-2.13845E-006	9.15362E-005	10	0.0006923	0.1001219	0
	18	35	15878.91	145.1023	-3.837246	1	145.153	-1.51484	-2.150805E-006	9.079336E-005	10	0.0006895	0.1000677	0
	19	37	12597.66	145.5311	-3.261083	1	145.5676	-1.283678	-2.06356E-006	8.942385E-005	10	0.0006873	0.1000475	0
	20	39	10019.53	145.8509	-2.750978	1	145.8768	-1.080561	-2.090464E-006	9.012845E-005	10	0.0006856	0.1000065	0
	21	41	7928.241	146.1028	-2.30123	1	146.1209	-0.9023776	-2.894949E-007	0.0001468	10	0.0006845	0.1000231	0
	22	42	6307.871	146.2909	-1.922709	1	146.3035	-0.7529979	-2.236352E-007	0.0001472	10	0.0006837	0.100029	0
	23	44	5034.722	146.4323	-1.621145	1	146.4413	-0.6342929	-1.939847E-006	0.0001197	10	0.0006645	0.0970605	0
	24	46	3993.056	146.5484	-1.354936	1	146.5547	-0.5297219	-1.968906E-006	0.0001199	10	0.0006954	0.1017638	0
	25	48	3144.055	146.6377	-1.130443	1	146.6421	-0.4416893	-1.944202E-006	0.0001184	10	0.0006874	0.1007102	0
	26	49	2519.531	146.7104	-0.962501	1	146.7136	-0.3758865	-2.015027E-006	0.0001186	10	0.000684	0.1003018	0
	27	51	2000.762	146.7755	-0.8209372	1	146.7778	-0.3204603	-1.928097E-006	0.0001191	10	0.0006823	0.1001119	0
	28	53	1580.669	146.8304	-0.7077041	1	146.8321	-0.2761564	-1.835558E-006	0.0001183	10	0.0006814	0.1000365	0
	29	55	1253.634	146.8768	-0.6204573	1	146.8781	-0.2420353	-1.733468E-006	0.0001176	10	0.0006811	0.1000198	0
	30	56	1000.702	146.9196	-0.5553131	1	146.9206	-0.2165602	-1.746738E-006	0.0001185	10	0.0006806	0.0999908	0
	31	58	790.0281	146.9666	-0.5023479	1	146.9675	-0.1958424	-1.745837E-006	0.0001191	10	0.0006805	0.100014	0
	32	60	628.811	147.0125	-0.4633378	1	147.0133	-0.1805779	-1.766997E-006	0.0001174	10	0.00068	0.0999702	0
	33	61	502.2321	147.0708	-0.4403766	1	147.0714	-0.1715612	-1.782994E-006	0.0001157	10	0.0006534	0.0954415	0
	34	63	400.1524	147.1036	-0.4105738	1	147.1042	-0.1599151	-1.818967E-006	0.0001165	10	0.0007009	0.1026359	0
	35	65	315.5048	147.1519	-0.3883403	1	147.1524	-0.1512057	-1.855895E-006	0.0001162	10	0.0006893	0.1011319	0
	36	66	252.0161	147.1955	-0.3727723	1	147.196	-0.1451012	-1.889576E-006	0.0001147	10	0.0006832	0.1003675	0
	37	68	200.3205	147.2427	-0.3588153	1	147.2431	-0.1396236	-1.850297E-006	0.0001132	10	0.0006803	0.1000535	0
	38	70	158.0056	147.2853	-0.3437766	1	147.2857	-0.1337331	-1.722513E-006	0.0001111	10	0.0006773	0.0996763	0
	39	72	125.558	147.3293	-0.3285657	1	147.3297	-0.1277777	-1.696496E-006	0.0001149	10	0.000673	0.0991028	0
	40	73	99.734	147.3703	-0.3167463	1	147.3707	-0.1231469	-1.701048E-006	0.0001147	10	0.0006645	0.0978933	0
	41	75	79.44915	147.407	-0.2881131	1	147.4072	-0.1119869	-1.766567E-006	0.0001128	10	0.000698	0.1028718	0
	42	77	62.91946	147.4478	-0.2850278	1	147.448	-0.110757	-1.750015E-006	0.0001132	10	0.0006784	0.100011	0
	43	79	49.86702	147.482	-0.2652946	1	147.4822	-0.1030651	-1.686566E-006	0.0001139	10	0.0006783	0.1000271	0
	44	80	38.42213	147.5243	-0.2451195	1	147.5245	-0.0951999	-1.588339E-006	0.0001133	10	0.0006779	0.1000041	0
	45	82	31.25	147.5542	-0.244361	1	147.5544	-0.0948861	-1.524108E-006	0.0001121	10	0.0006777	0.0999994	0
	46	84	24.93351	147.5871	-0.2311052	1	147.5873	-0.0897188	-1.406968E-006	0.0001113	10	0.0006776	0.1000001	0
	47	86	20.03205	147.6106	-0.2198682	1	147.6107	-0.0853429	-1.299825E-006	0.0001099	10	0.0006775	0.0999999	0
	48	88	15.625	147.6301	-0.2108644	1	147.6302	-0.0818372	-1.228299E-006	0.000113	10	0.0006774	0.1	0
	49	90	12.46675	147.6438	-0.2018761	1	147.6439	-0.0783416	-1.162937E-006	0.0001132	10	0.0006773	0.0999993	0
	50	92	9.9734	147.6584	-0.1945707	1	147.6585	-0.0754991	-1.043421E-006	0.0001144	10	0.0006772	0.1000002	0
	51	94	7.971939	147.6604	-0.1900599	1	147.6606	-0.0737477	-1.058182E-006	0.0001125	10	0.0006772	0.0999992	0
	52	96	6.351626	147.6544	-0.1825942	1	147.6545	-0.0708538	-1.118914E-006	0.0001116	10	0.0006773	0.1	0
	53	99	5.013369	147.6491	-0.1783977	1	147.6492	-0.0692279	-1.256625E-006	0.0001114	10	0.0006773	0.0999999	0
	54	101	3.985969	147.6444	-0.1759521	1	147.6445	-0.068281	-1.360057E-006	0.0001126	10	0.0006773	0.0999999	0
	55	104	3.175813	147.652	-0.1737038	1	147.6521	-0.0674051	-1.428147E-006	0.0001133	10	0.0006773	0.0999995	0
	56	107	2.516103	147.6728	-0.1529028	1	147.6728	-0.059325	-1.344881E-006	0.0001145	10	0.0006524	0.0964873	0
	57	111	1.99553	147.6861	-0.1498719	1	147.6862	-0.0581437	-1.342692E-006	0.0001146	10	0.0006906	0.1020736	0
	58	116	1.587906	147.7112	-0.1550049	1	147.7113	-0.0601249	-1.429463E-006	0.0001147	10	0.0006825	0.1008568	0
	59	121	1.258052	147.736	-0.1562078	1	147.7361	-0.0605813	-1.555078E-006	0.0001143	10	0.0006792	0.1003663	0
	60	127	0.997765	147.755	-0.158569	1	147.7551	-0.0614892	-1.600147E-006	0.0001149	10	0.0006778	0.100155	0
	61	133	0.7927448	147.7643	-0.1563469	1	147.7644	-0.0606237	-1.602687E-006	0.0001141	10	0.0006772	0.1000675	0
	62	140	0.6290258	147.7797	-0.1500062	1	147.7798	-0.058159	-1.242309E-006	0.0001141	10	0.0006769	0.1000316	0
	63	148	0.4988825	147.7915	-0.1478969	1	147.7916	-0.0573366	-1.321996E-006	0.0001136	10	0.0006767	0.1000163	0
	64	158	0.3985969	147.7866	-0.1431858	1	147.7867	-0.0555121	-1.052869E-006	0.0001143	10	0.0006767	0.100008	0
