EXPLAIN
TAG	EISPOT
TITLE	LABEL	Potentiostatic EIS	Test Identifier
DATE	LABEL	2025/12/24	Date
TIME	LABEL	1:44:39	Time
NOTES	NOTES	1	Notes...
	
PSTAT	PSTAT	IFC1000-11123	Potentiostat
VDC	POTEN	0.00000E+000	T	DC Voltage (V)
FREQINIT	QUANT	1.00000E+006	Initial Freq. (Hz)
FREQFINAL	QUANT	5.00000E-001	Final Freq. (Hz)
PTSPERDEC	QUANT	1.00000E+001	Points/decade
VAC	QUANT	1.00000E+002	AC Voltage (mV rms)
AREA	QUANT	7.85000E-001	Sample Area (cm^2)
SPEED	SELECTOR	1	Optimize for:
DRIFTCOR	SELECTOR	0	Drift Correction
THD	SELECTOR	0	THD
ZGUESS	QUANT	1.00000E+002	Estimated Z (ohms)
EOC	QUANT	-7.252101E-006	Open Circuit (V)
SEQUENCER	TOGGLE	TRUE	Run as Sequence
PSTATMODEL	IQUANT	48	Pstat Model
PSTATSECTION	LABEL	IFC1000-11123	Pstat Section
PSTATSERIALNO	LABEL	11123	Pstat Serial Number
CTRLMODE	IQUANT	1	Control Mode
ELECTROMETER	IQUANT	0	RE=0 or CS=1
IESTAB	IQUANT	0	I/E Stability
CASPEED	IQUANT	3	Control Amp Speed
CONVENTION	IQUANT	1	Current Convention
ICHRANGE	IQUANT	2	Ich Range
ICHRANGEMODE	TOGGLE	F	Ich Auto Range
ICHOFFSETENABLE	TOGGLE	T	Ich Offset Enable
ICHOFFSET	QUANT	0	Ich Offset (V)
ICHFILTER	IQUANT	4	Ich Filter
VCHRANGE	IQUANT	2	Vch Range
VCHRANGEMODE	TOGGLE	F	Vch Auto Range
VCHOFFSETENABLE	TOGGLE	T	Vch Offset Enable
VCHOFFSET	QUANT	0	Vch Offset (V)
VCHFILTER	IQUANT	4	Vch Filter
IERANGELOWERLIMIT	IQUANT	4	I/E Range Lower Limit
IERANGEMODE	TOGGLE	F	I/E AutoRange
IERANGE	IQUANT	11	I/E Range
ACHSELECT	IQUANT	0	Ach Select
ACHRANGE	IQUANT	2	Ach Range
ACHOFFSETENABLE	TOGGLE	F	Ach Offset Enable
ACHOFFSET	QUANT	0	Ach Offset (V)
ACHFILTER	IQUANT	1	Ach Filter
SENSECABLEID	IQUANT	14	Sense Cable ID
PWRCABLEID	IQUANT	14	Power Cable ID
DCCALDATE	LABEL	5/23/2025	DC Calibration Date
ACCALDATE	LABEL	4/29/2023	AC Calibration Date
FRAMEWORKVERSION	LABEL	7.10.0	Framework Version
INSTRUMENTVERSION	LABEL	4.72	Instrument Version
COMMVERSION	LABEL	3.10	Communications Version
CPUPLDVERSION	LABEL	1.10	CPU PLD Version
CTRLPLDVERSION	LABEL	0.00	CTRL PLD Version
PSTATPLDVERSION	LABEL	0.00	PSTAT PLD Version
ZCURVE	TABLE
	Pt	Time	Freq	Zreal	Zimag	Zsig	Zmod	Zphz	Idc	Vdc	IERange	Imod	Vmod	Temp
	#	s	Hz	ohm	ohm	V	ohm	°	A	V	#	A	V	°C
	0	3	1000020	122.4872	-3.366221	1	122.5335	-1.574219	-1.239248E-005	0.0002647	10	0.0008501	0.1000115	0
	1	5	794355.5	123.6637	-4.446891	1	123.7437	-2.059442	-1.218091E-005	0.0002694	10	0.0012545	0.1505745	0
	2	7	630996.1	124.9089	-5.38909	1	125.0251	-2.470446	-1.260711E-005	0.0002667	10	0.0011128	0.1359645	0
	3	8	501269.5	126.2053	-6.203145	1	126.3577	-2.813893	-1.284231E-005	0.0002529	10	0.001033	0.1282404	0
	4	10	398144.5	127.5699	-6.882782	1	127.7554	-3.088287	-1.291507E-005	0.0002524	10	0.0009751	0.1228403	0
	5	12	316230.5	128.9668	-7.436528	1	129.1811	-3.300153	-1.298823E-005	0.0002411	10	0.0009299	0.1187731	0
	6	14	251191.4	130.4305	-7.867479	1	130.6676	-3.451859	-1.302445E-005	0.0002321	10	0.000889	0.115095	0
	7	16	199628.9	131.9435	-8.139941	1	132.1943	-3.530254	-1.313176E-005	0.0002162	10	0.0008438	0.1106988	0
	8	17	158496.1	133.4716	-8.296341	1	133.7292	-3.556821	-1.29062E-005	0.0002262	10	0.0008174	0.1086456	0
	9	19	125918	135.0204	-8.33031	1	135.2771	-3.530484	-1.284091E-005	0.0002184	10	0.0007844	0.1056079	0
	10	21	100019.5	136.5545	-8.169161	1	136.7986	-3.423552	-1.659737E-006	0.0000991	10	0.0007411	0.1009737	0
	11	23	79511.72	137.9862	-7.913731	1	138.213	-3.282409	-1.543078E-006	0.0000976	10	0.0007561	0.1042244	0
	12	25	63105.47	139.3757	-7.503576	1	139.5775	-3.081662	-1.659693E-006	0.0000959	10	0.0007338	0.1022467	0
	13	26	50214.84	140.6363	-6.990544	1	140.8099	-2.845633	-1.798129E-006	9.332079E-005	10	0.0007194	0.1011921	0
	14	28	39902.34	141.7619	-6.377797	1	141.9053	-2.57597	-1.822018E-006	9.296234E-005	10	0.0007098	0.1006557	0
	15	30	31699.22	142.7404	-5.722102	1	142.855	-2.295614	-1.903834E-006	9.054452E-005	10	0.000703	0.1003799	0
	16	32	25136.72	143.5526	-5.032656	1	143.6408	-2.007848	-1.909927E-006	9.158434E-005	10	0.0006979	0.1002192	0
	17	33	19980.47	144.2092	-4.363423	1	144.2752	-1.733104	-1.961921E-006	8.957949E-005	10	0.0006941	0.1001209	0
	18	35	15878.91	144.731	-3.745506	1	144.7795	-1.482432	-1.967222E-006	9.037227E-005	10	0.0006913	0.100068	0
	19	37	12597.66	145.1453	-3.174217	1	145.18	-1.252815	-2.015807E-006	8.906226E-005	10	0.0006892	0.1000467	0
	20	39	10019.53	145.4767	-2.67671	1	145.5013	-1.054099	-2.006822E-006	9.087985E-005	10	0.0006874	0.1000076	0
	21	40	7928.241	145.7161	-2.237707	1	145.7333	-0.8798004	-4.189678E-008	0.0001451	10	0.0006864	0.1000219	0
	22	42	6307.871	145.9002	-1.875207	1	145.9122	-0.7363632	6.295315E-008	0.0001477	10	0.0006856	0.1000283	0
	23	44	5034.722	146.0405	-1.575859	1	146.049	-0.6182297	-1.517411E-006	0.0001168	10	0.0006662	0.0970603	0
	24	46	3993.056	146.1493	-1.318859	1	146.1552	-0.5170261	-1.468914E-006	0.0001173	10	0.0006973	0.101764	0
	25	47	3144.055	146.2372	-1.100364	1	146.2413	-0.431115	-1.477866E-006	0.0001193	10	0.0006892	0.1007104	0
	26	49	2519.531	146.2991	-0.9359869	1	146.3021	-0.3665598	-1.433043E-006	0.0001177	10	0.000686	0.1003047	0
	27	51	2000.762	146.3505	-0.8010558	1	146.3527	-0.3136077	-1.478416E-006	0.000119	10	0.0006843	0.1001124	0
	28	53	1580.669	146.3973	-0.6902183	1	146.3989	-0.27013	-1.556258E-006	0.0001187	10	0.0006834	0.1000371	0
	29	54	1253.634	146.4379	-0.6066467	1	146.4392	-0.2373572	-1.589174E-006	0.0001193	10	0.0006831	0.1000204	0
	30	56	1000.702	146.4771	-0.5418572	1	146.4781	-0.2119512	-1.642543E-006	0.0001199	10	0.0006827	0.0999905	0
	31	58	790.0281	146.521	-0.4900956	1	146.5219	-0.1916469	-1.636305E-006	0.000119	10	0.0006826	0.1000155	0
	32	60	628.811	146.5654	-0.4537848	1	146.5661	-0.1773943	-1.574823E-006	0.0001191	10	0.0006821	0.0999717	0
	33	61	502.2321	146.6241	-0.4337916	1	146.6248	-0.1695107	-1.608878E-006	0.000117	10	0.0006554	0.0954423	0
	34	63	400.1524	146.6698	-0.403687	1	146.6703	-0.1576978	-1.654389E-006	0.0001158	10	0.000703	0.1026375	0
	35	65	315.5048	146.7179	-0.3797878	1	146.7184	-0.1483131	-1.6566E-006	0.0001155	10	0.0006914	0.1011323	0
	36	66	252.0161	146.7625	-0.3665599	1	146.763	-0.1431039	-1.75034E-006	0.0001134	10	0.0006852	0.1003668	0
	37	68	200.3205	146.8107	-0.3507126	1	146.8111	-0.1368723	-1.807862E-006	0.0001133	10	0.0006821	0.1000234	0
	38	70	158.0056	146.8593	-0.3363628	1	146.8597	-0.1312286	-1.722499E-006	0.0001122	10	0.0006794	0.0997068	0
	39	71	125.558	146.9017	-0.3247203	1	146.902	-0.1266498	-1.560844E-006	0.000116	10	0.0006749	0.0991021	0
	40	73	99.734	146.9418	-0.3110461	1	146.9422	-0.1212834	-1.544169E-006	0.0001129	10	0.0006662	0.0978621	0
	41	75	79.44915	146.9769	-0.2818834	1	146.9772	-0.109886	-1.605372E-006	0.0001106	10	0.0007002	0.1028954	0
	42	77	62.91946	147.0173	-0.2827623	1	147.0176	-0.1101984	-1.607176E-006	0.0001092	10	0.0006804	0.100013	0
	43	78	49.86702	147.0493	-0.2674489	1	147.0495	-0.1042077	-1.604468E-006	0.0001122	10	0.0006803	0.1000274	0
	44	80	38.42213	147.0874	-0.2448184	1	147.0876	-0.0953654	-1.630986E-006	0.0001126	10	0.0006799	0.1000021	0
	45	82	31.25	147.1146	-0.2417329	1	147.1148	-0.0941461	-1.638797E-006	0.0001126	10	0.0006798	0.100002	0
	46	84	24.93351	147.1478	-0.2284713	1	147.148	-0.0889611	-1.687645E-006	0.0001118	10	0.0006796	0.0999975	0
	47	86	20.03205	147.1672	-0.2150851	1	147.1673	-0.0837378	-1.669789E-006	0.0001113	10	0.0006795	0.1000013	0
	48	88	15.625	147.1896	-0.2084438	1	147.1897	-0.0811399	-1.615348E-006	0.0001125	10	0.0006794	0.0999991	0
	49	90	12.46675	147.211	-0.1995051	1	147.2111	-0.0776491	-1.500099E-006	0.0001124	10	0.0006793	0.1000001	0
	50	92	9.9734	147.2282	-0.1927878	1	147.2283	-0.0750259	-1.456196E-006	0.000112	10	0.0006792	0.0999997	0
	51	94	7.971939	147.2389	-0.1868011	1	147.239	-0.0726908	-1.424365E-006	0.0001116	10	0.0006792	0.0999993	0
	52	96	6.351626	147.2401	-0.1835301	1	147.2402	-0.0714173	-1.455212E-006	0.0001133	10	0.0006792	0.1000001	0
	53	99	5.013369	147.2318	-0.1795189	1	147.2319	-0.0698604	-1.618184E-006	0.0001114	10	0.0006792	0.0999995	0
	54	101	3.985969	147.2288	-0.1745938	1	147.2289	-0.0679451	-1.651466E-006	0.0001122	10	0.0006792	0.0999994	0
	55	104	3.175813	147.2312	-0.174418	1	147.2313	-0.0678756	-1.707773E-006	0.0001136	10	0.0006792	0.1000004	0
	56	107	2.516103	147.2393	-0.1521484	1	147.2394	-0.059206	-1.621005E-006	0.0001155	10	0.0006543	0.0964873	0
	57	111	1.99553	147.2349	-0.1529136	1	147.235	-0.0595056	-1.536716E-006	0.0001166	10	0.0006927	0.1020736	0
	58	116	1.587906	147.2537	-0.1575007	1	147.2538	-0.0612828	-1.657468E-006	0.0001156	10	0.0006847	0.1008566	0
	59	121	1.258052	147.2588	-0.1591276	1	147.2589	-0.0619137	-1.606997E-006	0.0001149	10	0.0006814	0.1003665	0
	60	127	0.997765	147.2586	-0.1595019	1	147.2587	-0.0620594	-1.638299E-006	0.0001148	10	0.00068	0.1001542	0
	61	133	0.7927448	147.261	-0.1547084	1	147.2611	-0.0601933	-1.655159E-006	0.0001146	10	0.0006795	0.1000676	0
	62	140	0.6290258	147.2723	-0.1537119	1	147.2724	-0.0598011	-1.775982E-006	0.0001156	10	0.0006792	0.1000324	0
	63	148	0.4988825	147.2534	-0.1441496	1	147.2535	-0.0560881	-1.905863E-006	0.0001158	10	0.0006792	0.1000163	0
	64	158	0.3985969	147.1996	-0.1421887	1	147.1997	-0.0553453	-1.81109E-006	0.0001158	10	0.0006794	0.100008	0
