EXPLAIN
TAG	EISPOT
TITLE	LABEL	Potentiostatic EIS	Test Identifier
DATE	LABEL	2025/12/23	Date
TIME	LABEL	23:22:55	Time
NOTES	NOTES	1	Notes...
	
PSTAT	PSTAT	IFC1000-11123	Potentiostat
VDC	POTEN	0.00000E+000	T	DC Voltage (V)
FREQINIT	QUANT	1.00000E+006	Initial Freq. (Hz)
FREQFINAL	QUANT	5.00000E-001	Final Freq. (Hz)
PTSPERDEC	QUANT	1.00000E+001	Points/decade
VAC	QUANT	1.00000E+002	AC Voltage (mV rms)
AREA	QUANT	7.85000E-001	Sample Area (cm^2)
SPEED	SELECTOR	1	Optimize for:
DRIFTCOR	SELECTOR	0	Drift Correction
THD	SELECTOR	0	THD
ZGUESS	QUANT	1.00000E+002	Estimated Z (ohms)
EOC	QUANT	-7.386704E-006	Open Circuit (V)
SEQUENCER	TOGGLE	TRUE	Run as Sequence
PSTATMODEL	IQUANT	48	Pstat Model
PSTATSECTION	LABEL	IFC1000-11123	Pstat Section
PSTATSERIALNO	LABEL	11123	Pstat Serial Number
CTRLMODE	IQUANT	1	Control Mode
ELECTROMETER	IQUANT	0	RE=0 or CS=1
IESTAB	IQUANT	0	I/E Stability
CASPEED	IQUANT	3	Control Amp Speed
CONVENTION	IQUANT	1	Current Convention
ICHRANGE	IQUANT	2	Ich Range
ICHRANGEMODE	TOGGLE	F	Ich Auto Range
ICHOFFSETENABLE	TOGGLE	T	Ich Offset Enable
ICHOFFSET	QUANT	0	Ich Offset (V)
ICHFILTER	IQUANT	4	Ich Filter
VCHRANGE	IQUANT	2	Vch Range
VCHRANGEMODE	TOGGLE	F	Vch Auto Range
VCHOFFSETENABLE	TOGGLE	T	Vch Offset Enable
VCHOFFSET	QUANT	0	Vch Offset (V)
VCHFILTER	IQUANT	4	Vch Filter
IERANGELOWERLIMIT	IQUANT	4	I/E Range Lower Limit
IERANGEMODE	TOGGLE	F	I/E AutoRange
IERANGE	IQUANT	11	I/E Range
ACHSELECT	IQUANT	0	Ach Select
ACHRANGE	IQUANT	2	Ach Range
ACHOFFSETENABLE	TOGGLE	F	Ach Offset Enable
ACHOFFSET	QUANT	0	Ach Offset (V)
ACHFILTER	IQUANT	1	Ach Filter
SENSECABLEID	IQUANT	14	Sense Cable ID
PWRCABLEID	IQUANT	14	Power Cable ID
DCCALDATE	LABEL	5/23/2025	DC Calibration Date
ACCALDATE	LABEL	4/29/2023	AC Calibration Date
FRAMEWORKVERSION	LABEL	7.10.0	Framework Version
INSTRUMENTVERSION	LABEL	4.72	Instrument Version
COMMVERSION	LABEL	3.10	Communications Version
CPUPLDVERSION	LABEL	1.10	CPU PLD Version
CTRLPLDVERSION	LABEL	0.00	CTRL PLD Version
PSTATPLDVERSION	LABEL	0.00	PSTAT PLD Version
ZCURVE	TABLE
	Pt	Time	Freq	Zreal	Zimag	Zsig	Zmod	Zphz	Idc	Vdc	IERange	Imod	Vmod	Temp
	#	s	Hz	ohm	ohm	V	ohm	°	A	V	#	A	V	°C
	0	4	1000020	121.6636	-2.942333	1	121.6992	-1.385381	-1.215988E-005	0.0002663	10	0.0008571	0.1001469	0
	1	6	794355.5	122.7651	-4.048025	1	122.8318	-1.888573	-1.208036E-005	0.000279	10	0.0012621	0.1503806	0
	2	7	630996.1	123.9375	-4.997952	1	124.0382	-2.309281	-1.245801E-005	0.0002736	10	0.0011242	0.1362738	0
	3	9	501269.5	125.2003	-5.857291	1	125.3372	-2.678536	-1.262889E-005	0.00026	10	0.0010379	0.1278072	0
	4	11	398144.5	126.5237	-6.551058	1	126.6932	-2.963976	-1.2933E-005	0.0002529	10	0.000985	0.1230657	0
	5	13	316230.5	127.8909	-7.112841	1	128.0886	-3.183309	-1.287329E-005	0.0002388	10	0.0009402	0.1190739	0
	6	15	251191.4	129.3278	-7.544462	1	129.5477	-3.33862	-1.302261E-005	0.0002372	10	0.0008926	0.1145712	0
	7	16	199628.9	130.7985	-7.823076	1	131.0322	-3.422791	-1.307417E-005	0.0002152	10	0.0008547	0.1111518	0
	8	18	158496.1	132.3103	-7.9665	1	132.55	-3.44566	-1.290057E-005	0.0002261	10	0.0008233	0.1084635	0
	9	20	125918	133.7923	-7.966154	1	134.0293	-3.407437	-1.296103E-005	0.0002229	10	0.0007919	0.1056351	0
	10	22	100019.5	135.2677	-7.791395	1	135.4919	-3.296585	-1.792435E-006	0.0001029	10	0.0007483	0.1009788	0
	11	23	79511.72	136.6336	-7.511405	1	136.8399	-3.146657	-1.772672E-006	0.0001003	10	0.0007637	0.1042345	0
	12	25	63105.47	137.9481	-7.090709	1	138.1302	-2.942487	-1.767483E-006	0.0000967	10	0.0007414	0.102233	0
	13	27	50214.84	139.1235	-6.564732	1	139.2783	-2.701575	-1.790855E-006	9.414298E-005	10	0.0007275	0.1012093	0
	14	29	39902.34	140.1666	-5.962723	1	140.2933	-2.435909	-1.901743E-006	9.325839E-005	10	0.0007181	0.1006794	0
	15	31	31699.22	141.0502	-5.310102	1	141.1502	-2.155989	-1.906402E-006	9.278877E-005	10	0.0007114	0.1003719	0
	16	32	25136.72	141.7857	-4.65203	1	141.862	-1.879217	-1.927127E-006	9.355991E-005	10	0.0007066	0.1002117	0
	17	34	19980.47	142.3679	-4.023873	1	142.4248	-1.618971	-1.876477E-006	9.304204E-005	10	0.0007031	0.1001173	0
	18	36	15878.91	142.8201	-3.434126	1	142.8614	-1.377418	-1.852893E-006	9.230847E-005	10	0.0007005	0.1000638	0
	19	38	12597.66	143.174	-2.901639	1	143.2034	-1.161027	-1.909986E-006	9.167253E-005	10	0.0006987	0.1000422	0
	20	39	10019.53	143.4392	-2.442575	1	143.46	-0.975575	-1.915248E-006	9.132887E-005	10	0.0006973	0.1000362	0
	21	41	7928.241	143.6406	-2.033287	1	143.655	-0.8109894	-9.696078E-008	0.0001446	10	0.0006963	0.1000187	0
	22	43	6307.871	143.7858	-1.704603	1	143.7959	-0.6792184	-1.160919E-008	0.0001466	10	0.0006954	0.0999956	0
	23	45	5034.722	143.8905	-1.434877	1	143.8977	-0.5713348	-1.514517E-006	0.0001207	10	0.0006762	0.0970575	0
	24	46	3993.056	143.9772	-1.201267	1	143.9822	-0.4780338	-1.414026E-006	0.0001209	10	0.0007078	0.1017618	0
	25	48	3144.055	144.0465	-1.003013	1	144.05	-0.3989508	-1.341146E-006	0.0001202	10	0.0006999	0.1007397	0
	26	50	2519.531	144.1013	-0.856992	1	144.1039	-0.3407424	-1.274185E-006	0.0001206	10	0.0006962	0.1002696	0
	27	52	2000.762	144.1481	-0.734548	1	144.15	-0.2919645	-1.328589E-006	0.0001207	10	0.0006949	0.1001417	0
	28	53	1580.669	144.1922	-0.6355568	1	144.1936	-0.2525413	-1.37341E-006	0.0001194	10	0.0006939	0.1000348	0
	29	55	1253.634	144.2292	-0.5609683	1	144.2302	-0.2228464	-1.387891E-006	0.0001199	10	0.0006935	0.1000163	0
	30	57	1000.702	144.2645	-0.5048241	1	144.2653	-0.2004941	-1.439957E-006	0.0001204	10	0.0006934	0.100019	0
	31	59	790.0281	144.3059	-0.4562875	1	144.3066	-0.1811656	-1.430869E-006	0.0001227	10	0.0006929	0.0999811	0
	32	60	628.811	144.3459	-0.4223106	1	144.3466	-0.1676289	-1.453787E-006	0.000121	10	0.0006928	0.0999991	0
	33	62	502.2321	144.4013	-0.4014926	1	144.4018	-0.1593045	-1.566514E-006	0.0001155	10	0.0006654	0.0954387	0
	34	64	400.1524	144.4394	-0.3738853	1	144.4398	-0.1483114	-1.585055E-006	0.000117	10	0.0007139	0.1026351	0
	35	65	315.5048	144.4861	-0.3542719	1	144.4865	-0.1404858	-1.604403E-006	0.0001181	10	0.0007018	0.1010989	0
	36	67	252.0161	144.5284	-0.3363777	1	144.5287	-0.1333509	-1.658668E-006	0.0001138	10	0.000696	0.1003954	0
	37	69	200.3205	144.5721	-0.3238953	1	144.5725	-0.1283636	-1.583365E-006	0.0001144	10	0.0006927	0.1000201	0
	38	70	158.0056	144.6136	-0.3076541	1	144.6139	-0.1218921	-1.629707E-006	0.0001171	10	0.00069	0.0997036	0
	39	72	125.558	144.6488	-0.2952936	1	144.6491	-0.1169665	-1.602318E-006	0.0001178	10	0.0006854	0.0990994	0
	40	74	99.734	144.6905	-0.282661	1	144.6908	-0.1119304	-1.594494E-006	0.0001168	10	0.0006767	0.0978878	0
	41	76	79.44915	144.7187	-0.2544073	1	144.7189	-0.1007227	-1.649953E-006	0.0001159	10	0.000711	0.1028745	0
	42	77	62.91946	144.7445	-0.2565611	1	144.7448	-0.1015572	-1.580551E-006	0.0001137	10	0.000691	0.1000096	0
	43	79	49.86702	144.7651	-0.2442366	1	144.7653	-0.0966649	-1.593244E-006	0.0001146	10	0.000691	0.1000291	0
	44	81	38.42213	144.7887	-0.2215286	1	144.7888	-0.0876633	-1.568322E-006	0.0001153	10	0.0006907	0.1000042	0
	45	83	31.25	144.806	-0.221941	1	144.8062	-0.0878159	-1.579363E-006	0.000114	10	0.0006906	0.1000012	0
	46	85	24.93351	144.8326	-0.2113979	1	144.8327	-0.083629	-1.632317E-006	0.0001142	10	0.0006905	0.0999985	0
	47	86	20.03205	144.8524	-0.2004273	1	144.8525	-0.0792782	-1.723661E-006	0.0001103	10	0.0006904	0.0999996	0
	48	88	15.625	144.8728	-0.1959175	1	144.8729	-0.0774834	-1.647116E-006	0.0001151	10	0.0006903	0.0999993	0
	49	90	12.46675	144.8865	-0.1913091	1	144.8867	-0.0756537	-1.541539E-006	0.0001133	10	0.0006902	0.1000004	0
	50	92	9.9734	144.9012	-0.1847333	1	144.9013	-0.0730459	-1.437358E-006	0.0001146	10	0.0006901	0.0999996	0
	51	95	7.971939	144.9195	-0.1817879	1	144.9196	-0.0718721	-1.290896E-006	0.0001151	10	0.00069	0.0999995	0
	52	97	6.351626	144.9299	-0.1783918	1	144.93	-0.0705244	-1.319178E-006	0.0001135	10	0.00069	0.0999994	0
	53	99	5.013369	144.9401	-0.1753464	1	144.9402	-0.0693156	-1.345434E-006	0.0001121	10	0.0006899	0.1000006	0
	54	102	3.985969	144.9388	-0.1762029	1	144.9389	-0.0696547	-1.350653E-006	0.000115	10	0.0006899	0.0999998	0
	55	105	3.175813	144.9392	-0.1739649	1	144.9393	-0.0687699	-1.359719E-006	0.0001138	10	0.0006899	0.0999998	0
	56	108	2.516103	144.942	-0.1531336	1	144.9421	-0.0605339	-1.317107E-006	0.000118	10	0.0006647	0.0964881	0
	57	112	1.99553	144.9335	-0.1538626	1	144.9335	-0.0608257	-1.097341E-006	0.0001183	10	0.0007037	0.1020733	0
	58	116	1.587906	144.9435	-0.1588874	1	144.9436	-0.0628078	-1.069113E-006	0.0001189	10	0.0006956	0.1008565	0
	59	122	1.258052	144.944	-0.1604751	1	144.9441	-0.0634351	-1.208667E-006	0.0001181	10	0.0006923	0.1003665	0
	60	127	0.997765	144.9516	-0.1606227	1	144.9516	-0.0634902	-1.091701E-006	0.0001175	10	0.0006909	0.100155	0
	61	133	0.7927448	144.9747	-0.1563201	1	144.9748	-0.0617796	-7.859376E-007	0.000118	10	0.0006902	0.1000674	0
	62	140	0.6290258	144.9706	-0.1533277	1	144.9707	-0.0605987	-6.736343E-007	0.0001176	10	0.00069	0.1000319	0
	63	149	0.4988825	144.9474	-0.149133	1	144.9474	-0.0589503	-4.239218E-007	0.0001182	10	0.00069	0.1000156	0
	64	159	0.3985969	144.9543	-0.1443661	1	144.9543	-0.0570633	-5.525004E-007	0.0001167	10	0.0006899	0.1000085	0
