EXPLAIN
TAG	EISPOT
TITLE	LABEL	Potentiostatic EIS	Test Identifier
DATE	LABEL	2025/12/23	Date
TIME	LABEL	23:32:22	Time
NOTES	NOTES	1	Notes...
	
PSTAT	PSTAT	IFC1000-11123	Potentiostat
VDC	POTEN	0.00000E+000	T	DC Voltage (V)
FREQINIT	QUANT	1.00000E+006	Initial Freq. (Hz)
FREQFINAL	QUANT	5.00000E-001	Final Freq. (Hz)
PTSPERDEC	QUANT	1.00000E+001	Points/decade
VAC	QUANT	1.00000E+002	AC Voltage (mV rms)
AREA	QUANT	7.85000E-001	Sample Area (cm^2)
SPEED	SELECTOR	1	Optimize for:
DRIFTCOR	SELECTOR	0	Drift Correction
THD	SELECTOR	0	THD
ZGUESS	QUANT	1.00000E+002	Estimated Z (ohms)
EOC	QUANT	-1.043167E-005	Open Circuit (V)
SEQUENCER	TOGGLE	TRUE	Run as Sequence
PSTATMODEL	IQUANT	48	Pstat Model
PSTATSECTION	LABEL	IFC1000-11123	Pstat Section
PSTATSERIALNO	LABEL	11123	Pstat Serial Number
CTRLMODE	IQUANT	1	Control Mode
ELECTROMETER	IQUANT	0	RE=0 or CS=1
IESTAB	IQUANT	0	I/E Stability
CASPEED	IQUANT	3	Control Amp Speed
CONVENTION	IQUANT	1	Current Convention
ICHRANGE	IQUANT	2	Ich Range
ICHRANGEMODE	TOGGLE	F	Ich Auto Range
ICHOFFSETENABLE	TOGGLE	T	Ich Offset Enable
ICHOFFSET	QUANT	0	Ich Offset (V)
ICHFILTER	IQUANT	4	Ich Filter
VCHRANGE	IQUANT	2	Vch Range
VCHRANGEMODE	TOGGLE	F	Vch Auto Range
VCHOFFSETENABLE	TOGGLE	T	Vch Offset Enable
VCHOFFSET	QUANT	0	Vch Offset (V)
VCHFILTER	IQUANT	4	Vch Filter
IERANGELOWERLIMIT	IQUANT	4	I/E Range Lower Limit
IERANGEMODE	TOGGLE	F	I/E AutoRange
IERANGE	IQUANT	11	I/E Range
ACHSELECT	IQUANT	0	Ach Select
ACHRANGE	IQUANT	2	Ach Range
ACHOFFSETENABLE	TOGGLE	F	Ach Offset Enable
ACHOFFSET	QUANT	0	Ach Offset (V)
ACHFILTER	IQUANT	1	Ach Filter
SENSECABLEID	IQUANT	14	Sense Cable ID
PWRCABLEID	IQUANT	14	Power Cable ID
DCCALDATE	LABEL	5/23/2025	DC Calibration Date
ACCALDATE	LABEL	4/29/2023	AC Calibration Date
FRAMEWORKVERSION	LABEL	7.10.0	Framework Version
INSTRUMENTVERSION	LABEL	4.72	Instrument Version
COMMVERSION	LABEL	3.10	Communications Version
CPUPLDVERSION	LABEL	1.10	CPU PLD Version
CTRLPLDVERSION	LABEL	0.00	CTRL PLD Version
PSTATPLDVERSION	LABEL	0.00	PSTAT PLD Version
ZCURVE	TABLE
	Pt	Time	Freq	Zreal	Zimag	Zsig	Zmod	Zphz	Idc	Vdc	IERange	Imod	Vmod	Temp
	#	s	Hz	ohm	ohm	V	ohm	°	A	V	#	A	V	°C
	0	4	1000020	121.8648	-2.966904	1	121.9009	-1.39464	-1.241848E-005	0.0002613	10	0.0008549	0.1000549	0
	1	6	794355.5	122.9507	-4.096982	1	123.0189	-1.908513	-1.223426E-005	0.0002694	10	0.0012605	0.1504112	0
	2	7	630996.1	124.1222	-5.055676	1	124.2252	-2.332449	-1.262558E-005	0.0002724	10	0.0011207	0.1360578	0
	3	9	501269.5	125.3925	-5.882456	1	125.5304	-2.685911	-1.265943E-005	0.0002603	10	0.0010389	0.1281296	0
	4	11	398144.5	126.7116	-6.58466	1	126.8826	-2.974741	-1.28963E-005	0.0002531	10	0.0009837	0.1230876	0
	5	13	316230.5	128.0939	-7.14659	1	128.2931	-3.193325	-1.309498E-005	0.0002353	10	0.0009358	0.1187038	0
	6	14	251191.4	129.5244	-7.56687	1	129.7452	-3.343444	-1.307941E-005	0.000234	10	0.0008949	0.1150317	0
	7	16	199628.9	131.0082	-7.873688	1	131.2446	-3.43938	-1.32336E-005	0.0002114	10	0.0008535	0.1111634	0
	8	18	158496.1	132.4972	-7.99875	1	132.7384	-3.454708	-1.321263E-005	0.000226	10	0.0008204	0.1082382	0
	9	20	125918	133.9933	-8.000314	1	134.2319	-3.416893	-1.324682E-005	0.0002178	10	0.0007906	0.1056147	0
	10	22	100019.5	135.467	-7.828923	1	135.693	-3.307564	-2.062793E-006	0.0001014	10	0.0007472	0.1009814	0
	11	23	79511.72	136.8302	-7.553307	1	137.0385	-3.159637	-2.113144E-006	0.000098	10	0.0007626	0.1042355	0
	12	25	63105.47	138.1422	-7.129954	1	138.3261	-2.954594	-2.188213E-006	0.0000952	10	0.0007406	0.1022654	0
	13	27	50214.84	139.3279	-6.61088	1	139.4847	-2.716553	-2.235197E-006	9.251692E-005	10	0.0007262	0.101182	0
	14	29	39902.34	140.3734	-6.004107	1	140.5017	-2.449185	-2.207667E-006	9.2139E-005	10	0.0007171	0.1006786	0
	15	30	31699.22	141.2659	-5.35499	1	141.3674	-2.170881	-2.140403E-006	9.008328E-005	10	0.0007103	0.1003738	0
	16	32	25136.72	142.0009	-4.687509	1	142.0782	-1.890672	-2.135547E-006	8.9385E-005	10	0.0007056	0.1002152	0
	17	34	19980.47	142.5824	-4.052089	1	142.6399	-1.627867	-1.992596E-006	9.000057E-005	10	0.000702	0.1001173	0
	18	36	15878.91	143.0496	-3.460445	1	143.0914	-1.385745	-1.987623E-006	8.836685E-005	10	0.0006994	0.1000654	0
	19	38	12597.66	143.4081	-2.92651	1	143.438	-1.169065	-1.999868E-006	8.954108E-005	10	0.0006975	0.1000412	0
	20	39	10019.53	143.685	-2.46158	1	143.7061	-0.981483	-2.018857E-006	8.813239E-005	10	0.0006961	0.1000361	0
	21	41	7928.241	143.8995	-2.058757	1	143.9142	-0.8196697	-1.563203E-007	0.0001446	10	0.0006948	0.099988	0
	22	43	6307.871	144.0565	-1.719171	1	144.0668	-0.6837358	-2.07956E-007	0.0001445	10	0.0006943	0.1000282	0
	23	45	5034.722	144.1782	-1.449376	1	144.1854	-0.5759565	-1.762192E-006	0.0001188	10	0.0006748	0.0970581	0
	24	46	3993.056	144.2745	-1.211755	1	144.2796	-0.4812135	-1.75031E-006	0.000119	10	0.0007063	0.1017623	0
	25	48	3144.055	144.358	-1.013242	1	144.3616	-0.4021499	-1.660139E-006	0.0001175	10	0.0006984	0.1007401	0
	26	50	2519.531	144.4256	-0.8646775	1	144.4282	-0.3430264	-1.671401E-006	0.0001167	10	0.0006946	0.1002711	0
	27	52	2000.762	144.4891	-0.7420141	1	144.491	-0.294236	-1.623102E-006	0.0001188	10	0.0006931	0.1001112	0
	28	53	1580.669	144.5499	-0.6430703	1	144.5513	-0.2548945	-1.619883E-006	0.0001185	10	0.0006924	0.1000675	0
	29	55	1253.634	144.6054	-0.5664235	1	144.6065	-0.2244281	-1.588202E-006	0.0001169	10	0.0006918	0.1000202	0
	30	57	1000.702	144.6536	-0.5079541	1	144.6545	-0.2011945	-1.454604E-006	0.0001181	10	0.0006913	0.0999894	0
	31	58	790.0281	144.7	-0.4629794	1	144.7007	-0.1833219	-1.40398E-006	0.0001189	10	0.000691	0.0999817	0
	32	60	628.811	144.7446	-0.4269822	1	144.7452	-0.1690164	-1.455992E-006	0.0001178	10	0.0006909	0.100002	0
	33	62	502.2321	144.8016	-0.4067245	1	144.8022	-0.1609343	-1.605406E-006	0.0001149	10	0.0006636	0.0954422	0
	34	64	400.1524	144.8465	-0.3787347	1	144.847	-0.1498127	-1.660685E-006	0.0001162	10	0.0007119	0.1026358	0
	35	65	315.5048	144.896	-0.3572933	1	144.8964	-0.1412832	-1.741183E-006	0.0001156	10	0.0007	0.101132	0
	36	67	252.0161	144.9441	-0.3421738	1	144.9445	-0.1352596	-1.812586E-006	0.0001142	10	0.0006938	0.1003673	0
	37	69	200.3205	144.9875	-0.3259701	1	144.9879	-0.1288157	-1.789816E-006	0.0001143	10	0.0006907	0.1000211	0
	38	70	158.0056	145.0293	-0.3114825	1	145.0297	-0.1230551	-1.831271E-006	0.0001142	10	0.0006878	0.0996737	0
	39	72	125.558	145.0735	-0.2981307	1	145.0739	-0.1177445	-1.782665E-006	0.0001167	10	0.0006836	0.0991307	0
	40	74	99.734	145.1159	-0.2862429	1	145.1161	-0.1130165	-1.774952E-006	0.0001142	10	0.0006746	0.0978584	0
	41	76	79.44915	145.1582	-0.257606	1	145.1584	-0.1016803	-1.789048E-006	0.0001154	10	0.000709	0.1029014	0
	42	77	62.91946	145.1932	-0.2584221	1	145.1934	-0.1019778	-1.881598E-006	0.000112	10	0.0006889	0.1000112	0
	43	79	49.86702	145.2243	-0.2444917	1	145.2245	-0.09646	-1.963938E-006	0.000114	10	0.0006888	0.100028	0
	44	81	38.42213	145.2514	-0.2243086	1	145.2515	-0.0884806	-1.970792E-006	0.0001141	10	0.0006885	0.1000016	0
	45	83	31.25	145.2753	-0.2240093	1	145.2755	-0.088348	-1.989156E-006	0.0001156	10	0.0006884	0.1000023	0
	46	84	24.93351	145.2986	-0.2138211	1	145.2987	-0.0843163	-2.016274E-006	0.0001157	10	0.0006882	0.0999981	0
	47	86	20.03205	145.3185	-0.2029112	1	145.3186	-0.0800032	-2.048231E-006	0.0001141	10	0.0006882	0.1000009	0
	48	88	15.625	145.3393	-0.1960196	1	145.3394	-0.077275	-2.016321E-006	0.0001162	10	0.000688	0.0999994	0
	49	90	12.46675	145.3637	-0.1910051	1	145.3638	-0.0752855	-1.969421E-006	0.0001139	10	0.0006879	0.0999995	0
	50	92	9.9734	145.3871	-0.1862818	1	145.3872	-0.073412	-1.96066E-006	0.0001139	10	0.0006878	0.1	0
	51	94	7.971939	145.4085	-0.1811245	1	145.4086	-0.071369	-1.949345E-006	0.0001154	10	0.0006877	0.0999998	0
	52	97	6.351626	145.4265	-0.1777681	1	145.4266	-0.0700378	-1.965377E-006	0.0001142	10	0.0006876	0.0999995	0
	53	99	5.013369	145.4376	-0.1756044	1	145.4377	-0.0691801	-2.036947E-006	0.0001131	10	0.0006876	0.0999995	0
	54	102	3.985969	145.4407	-0.1745347	1	145.4408	-0.0687572	-1.964338E-006	0.0001142	10	0.0006876	0.1000001	0
	55	105	3.175813	145.4463	-0.1748141	1	145.4464	-0.0688646	-1.957012E-006	0.0001143	10	0.0006875	0.0999995	0
	56	108	2.516103	145.4503	-0.1553137	1	145.4503	-0.0611811	-1.90345E-006	0.000117	10	0.0006624	0.0964887	0
	57	112	1.99553	145.4304	-0.1531552	1	145.4305	-0.0603392	-1.870484E-006	0.0001176	10	0.0007013	0.1020727	0
	58	116	1.587906	145.4178	-0.1589429	1	145.4179	-0.0626247	-1.902208E-006	0.0001177	10	0.0006933	0.1008563	0
	59	121	1.258052	145.3959	-0.1596964	1	145.396	-0.0629311	-1.880517E-006	0.0001166	10	0.0006902	0.1003667	0
	60	127	0.997765	145.3568	-0.1610702	1	145.3569	-0.0634896	-1.750557E-006	0.0001177	10	0.000689	0.1001555	0
	61	133	0.7927448	145.3242	-0.1568478	1	145.3243	-0.0618391	-1.789389E-006	0.0001173	10	0.0006885	0.1000671	0
	62	140	0.6290258	145.2921	-0.1537117	1	145.2922	-0.060616	-1.821415E-006	0.0001174	10	0.0006885	0.1000319	0
	63	149	0.4988825	145.2607	-0.1481837	1	145.2608	-0.0584487	-1.651258E-006	0.0001164	10	0.0006885	0.1000161	0
	64	159	0.3985969	145.2587	-0.1425352	1	145.2587	-0.0562215	-1.337309E-006	0.0001179	10	0.0006885	0.1000075	0
