EXPLAIN
TAG	EISPOT
TITLE	LABEL	Potentiostatic EIS	Test Identifier
DATE	LABEL	2025/12/23	Date
TIME	LABEL	22:26:14	Time
NOTES	NOTES	1	Notes...
	
PSTAT	PSTAT	IFC1000-11123	Potentiostat
VDC	POTEN	0.00000E+000	T	DC Voltage (V)
FREQINIT	QUANT	1.00000E+006	Initial Freq. (Hz)
FREQFINAL	QUANT	5.00000E-001	Final Freq. (Hz)
PTSPERDEC	QUANT	1.00000E+001	Points/decade
VAC	QUANT	1.00000E+002	AC Voltage (mV rms)
AREA	QUANT	7.85000E-001	Sample Area (cm^2)
SPEED	SELECTOR	1	Optimize for:
DRIFTCOR	SELECTOR	0	Drift Correction
THD	SELECTOR	0	THD
ZGUESS	QUANT	1.00000E+002	Estimated Z (ohms)
EOC	QUANT	-8.989328E-006	Open Circuit (V)
SEQUENCER	TOGGLE	TRUE	Run as Sequence
PSTATMODEL	IQUANT	48	Pstat Model
PSTATSECTION	LABEL	IFC1000-11123	Pstat Section
PSTATSERIALNO	LABEL	11123	Pstat Serial Number
CTRLMODE	IQUANT	1	Control Mode
ELECTROMETER	IQUANT	0	RE=0 or CS=1
IESTAB	IQUANT	0	I/E Stability
CASPEED	IQUANT	3	Control Amp Speed
CONVENTION	IQUANT	1	Current Convention
ICHRANGE	IQUANT	2	Ich Range
ICHRANGEMODE	TOGGLE	F	Ich Auto Range
ICHOFFSETENABLE	TOGGLE	T	Ich Offset Enable
ICHOFFSET	QUANT	0	Ich Offset (V)
ICHFILTER	IQUANT	4	Ich Filter
VCHRANGE	IQUANT	2	Vch Range
VCHRANGEMODE	TOGGLE	F	Vch Auto Range
VCHOFFSETENABLE	TOGGLE	T	Vch Offset Enable
VCHOFFSET	QUANT	0	Vch Offset (V)
VCHFILTER	IQUANT	4	Vch Filter
IERANGELOWERLIMIT	IQUANT	4	I/E Range Lower Limit
IERANGEMODE	TOGGLE	F	I/E AutoRange
IERANGE	IQUANT	11	I/E Range
ACHSELECT	IQUANT	0	Ach Select
ACHRANGE	IQUANT	2	Ach Range
ACHOFFSETENABLE	TOGGLE	F	Ach Offset Enable
ACHOFFSET	QUANT	0	Ach Offset (V)
ACHFILTER	IQUANT	1	Ach Filter
SENSECABLEID	IQUANT	14	Sense Cable ID
PWRCABLEID	IQUANT	14	Power Cable ID
DCCALDATE	LABEL	5/23/2025	DC Calibration Date
ACCALDATE	LABEL	4/29/2023	AC Calibration Date
FRAMEWORKVERSION	LABEL	7.10.0	Framework Version
INSTRUMENTVERSION	LABEL	4.72	Instrument Version
COMMVERSION	LABEL	3.10	Communications Version
CPUPLDVERSION	LABEL	1.10	CPU PLD Version
CTRLPLDVERSION	LABEL	0.00	CTRL PLD Version
PSTATPLDVERSION	LABEL	0.00	PSTAT PLD Version
ZCURVE	TABLE
	Pt	Time	Freq	Zreal	Zimag	Zsig	Zmod	Zphz	Idc	Vdc	IERange	Imod	Vmod	Temp
	#	s	Hz	ohm	ohm	V	ohm	°	A	V	#	A	V	°C
	0	3	1000020	121.6492	-2.799109	1	121.6814	-1.318125	-1.242245E-005	0.0002678	10	0.000857	0.1001222	0
	1	5	794355.5	122.7338	-3.952061	1	122.7975	-1.844302	-1.240333E-005	0.0002762	10	0.0012639	0.1505477	0
	2	7	630996.1	123.9117	-4.920827	1	124.0094	-2.274156	-1.273028E-005	0.000273	10	0.0011224	0.1360238	0
	3	9	501269.5	125.1573	-5.749857	1	125.2893	-2.630379	-1.292355E-005	0.0002579	10	0.0010407	0.1280961	0
	4	11	398144.5	126.459	-6.456628	1	126.6237	-2.922819	-1.293597E-005	0.0002518	10	0.0009856	0.1230638	0
	5	12	316230.5	127.8338	-7.022592	1	128.0265	-3.144403	-1.318318E-005	0.0002376	10	0.0009376	0.1186893	0
	6	14	251191.4	129.2556	-7.458505	1	129.4707	-3.302505	-1.331035E-005	0.0002319	10	0.0008968	0.1150329	0
	7	16	199628.9	130.7149	-7.734253	1	130.9435	-3.386179	-1.352021E-005	0.0002105	10	0.0008555	0.1111677	0
	8	18	158496.1	132.1973	-7.875094	1	132.4316	-3.409125	-1.340464E-005	0.0002227	10	0.0008225	0.1082538	0
	9	20	125918	133.6788	-7.855531	1	133.9094	-3.363076	-1.344822E-005	0.0002191	10	0.0007927	0.1056373	0
	10	21	100019.5	135.1561	-7.673849	1	135.3738	-3.249632	-2.297567E-006	0.0000989	10	0.000749	0.1009792	0
	11	23	79511.72	136.5008	-7.385456	1	136.7004	-3.097002	-2.318833E-006	0.0000976	10	0.0007645	0.1042292	0
	12	25	63105.47	137.7947	-6.955828	1	137.9701	-2.889819	-2.273127E-006	9.400894E-005	10	0.0007424	0.1022587	0
	13	27	50214.84	138.9464	-6.422575	1	139.0948	-2.646522	-2.162737E-006	9.11369E-005	10	0.0007282	0.1011761	0
	14	28	39902.34	139.9618	-5.820485	1	140.0828	-2.381344	-2.195208E-006	8.971534E-005	10	0.0007192	0.1006754	0
	15	30	31699.22	140.8249	-5.17775	1	140.9201	-2.105662	-2.117295E-006	9.074749E-005	10	0.0007126	0.1003699	0
	16	32	25136.72	141.5303	-4.51843	1	141.6024	-1.828577	-2.253399E-006	9.002956E-005	10	0.0007079	0.1002111	0
	17	34	19980.47	142.0881	-3.902912	1	142.1417	-1.57342	-2.153198E-006	8.981454E-005	10	0.0007047	0.1001441	0
	18	36	15878.91	142.5252	-3.324511	1	142.5639	-1.336227	-2.033537E-006	9.045005E-005	10	0.0007019	0.1000602	0
	19	37	12597.66	142.8606	-2.808802	1	142.8882	-1.126355	-2.039082E-006	8.959818E-005	10	0.0007002	0.1000403	0
	20	39	10019.53	143.1121	-2.361106	1	143.1316	-0.9451971	-1.969395E-006	9.016658E-005	10	0.0006989	0.1000349	0
	21	41	7928.241	143.3018	-1.965583	1	143.3153	-0.7858415	-1.326216E-007	0.0001437	10	0.0006979	0.1000151	0
	22	43	6307.871	143.4449	-1.644771	1	143.4544	-0.6569369	-5.828065E-008	0.0001439	10	0.000697	0.0999924	0
	23	44	5034.722	143.5486	-1.385462	1	143.5553	-0.552974	-1.581092E-006	0.0001172	10	0.0006778	0.0970559	0
	24	46	3993.056	143.6253	-1.158136	1	143.63	-0.462	-1.613006E-006	0.000118	10	0.0007097	0.1017897	0
	25	48	3144.055	143.6868	-0.968198	1	143.6901	-0.3860676	-1.605832E-006	0.0001177	10	0.0007017	0.1007365	0
	26	50	2519.531	143.7348	-0.830064	1	143.7372	-0.3308776	-1.630926E-006	0.0001173	10	0.0006979	0.1002673	0
	27	51	2000.762	143.778	-0.7103095	1	143.7798	-0.2830572	-1.592553E-006	0.0001182	10	0.0006965	0.1001069	0
	28	53	1580.669	143.8183	-0.6150161	1	143.8197	-0.2450147	-1.564409E-006	0.0001174	10	0.0006959	0.1000615	0
	29	55	1253.634	143.8554	-0.5434687	1	143.8564	-0.2164557	-1.554869E-006	0.000118	10	0.0006953	0.1000145	0
	30	57	1000.702	143.8929	-0.4877133	1	143.8937	-0.1941987	-1.569507E-006	0.0001195	10	0.0006949	0.0999864	0
	31	58	790.0281	143.93	-0.4434395	1	143.9307	-0.1765242	-1.597498E-006	0.0001165	10	0.0006949	0.1000096	0
	32	60	628.811	143.9677	-0.4100192	1	143.9683	-0.1631776	-1.651764E-006	0.0001177	10	0.0006946	0.099997	0
	33	62	502.2321	144.0077	-0.3890304	1	144.0082	-0.1547817	-1.780138E-006	0.0001138	10	0.0006672	0.095437	0
	34	63	400.1524	144.0377	-0.3620993	1	144.0382	-0.1440367	-1.786167E-006	0.0001156	10	0.0007158	0.102633	0
	35	65	315.5048	144.0703	-0.3397756	1	144.0707	-0.1351262	-1.802407E-006	0.0001156	10	0.000704	0.1011264	0
	36	67	252.0161	144.1018	-0.3253748	1	144.1021	-0.1293709	-1.839092E-006	0.0001133	10	0.0006978	0.1003611	0
	37	68	200.3205	144.1366	-0.3090668	1	144.137	-0.122857	-1.937463E-006	0.0001141	10	0.000695	0.1000462	0
	38	70	158.0056	144.1705	-0.2949735	1	144.1708	-0.1172272	-1.997002E-006	0.0001142	10	0.0006919	0.0996681	0
	39	72	125.558	144.199	-0.2804899	1	144.1992	-0.1114492	-1.813218E-006	0.0001166	10	0.0006877	0.0991236	0
	40	74	99.734	144.2298	-0.2696538	1	144.2301	-0.1071207	-1.812852E-006	0.0001146	10	0.0006786	0.0978492	0
	41	75	79.44915	144.2503	-0.2402592	1	144.2505	-0.0954302	-1.922685E-006	0.0001129	10	0.0007136	0.1029118	0
	42	77	62.91946	144.2796	-0.2428532	1	144.2798	-0.0964409	-1.897849E-006	0.0001116	10	0.0006933	0.1000116	0
	43	79	49.86702	144.3009	-0.2315826	1	144.3011	-0.0919516	-1.918748E-006	0.0001115	10	0.0006932	0.1000278	0
	44	81	38.42213	144.3288	-0.2095114	1	144.3289	-0.083172	-1.892882E-006	0.0001127	10	0.0006929	0.1000038	0
	45	82	31.25	144.3463	-0.2137198	1	144.3464	-0.0848324	-1.891741E-006	0.0001117	10	0.0006928	0.1000002	0
	46	84	24.93351	144.3641	-0.2034892	1	144.3642	-0.0807615	-1.880484E-006	0.0001124	10	0.0006927	0.0999988	0
	47	86	20.03205	144.3834	-0.1944813	1	144.3835	-0.0771761	-1.926378E-006	0.0001111	10	0.0006926	0.1000006	0
	48	88	15.625	144.4007	-0.1915483	1	144.4009	-0.0760031	-1.830132E-006	0.0001132	10	0.0006925	0.0999993	0
	49	90	12.46675	144.4185	-0.186222	1	144.4187	-0.0738806	-1.808044E-006	0.0001114	10	0.0006924	0.1	0
	50	92	9.9734	144.4354	-0.1831083	1	144.4355	-0.0726368	-1.799656E-006	0.000112	10	0.0006924	0.0999997	0
	51	94	7.971939	144.4522	-0.1791771	1	144.4523	-0.0710691	-1.754138E-006	0.0001121	10	0.0006923	0.0999995	0
	52	96	6.351626	144.4692	-0.1761245	1	144.4693	-0.0698501	-1.789874E-006	0.0001131	10	0.0006922	0.1	0
	53	99	5.013369	144.491	-0.1768467	1	144.4911	-0.0701259	-1.763165E-006	0.0001101	10	0.0006921	0.0999997	0
	54	102	3.985969	144.5082	-0.1760201	1	144.5083	-0.0697898	-1.777717E-006	0.0001111	10	0.000692	0.0999998	0
	55	104	3.175813	144.5154	-0.1745002	1	144.5155	-0.0691838	-1.823825E-006	0.000113	10	0.000692	0.1000001	0
	56	108	2.516103	144.5149	-0.1589993	1	144.515	-0.0630384	-1.752742E-006	0.0001132	10	0.0006667	0.0964896	0
	57	112	1.99553	144.5166	-0.1556834	1	144.5167	-0.061723	-1.828679E-006	0.0001133	10	0.0007058	0.1020728	0
	58	116	1.587906	144.5277	-0.1615703	1	144.5278	-0.064052	-1.771602E-006	0.0001144	10	0.0006976	0.1008564	0
	59	121	1.258052	144.5389	-0.1638852	1	144.539	-0.0649647	-1.666871E-006	0.0001136	10	0.0006943	0.1003666	0
	60	127	0.997765	144.5289	-0.1626971	1	144.529	-0.0644982	-1.596759E-006	0.0001137	10	0.0006929	0.1001545	0
	61	133	0.7927448	144.4969	-0.1612627	1	144.4969	-0.0639437	-1.602401E-006	0.0001142	10	0.0006925	0.1000674	0
	62	140	0.6290258	144.4462	-0.1540666	1	144.4463	-0.0611118	-1.670058E-006	0.0001145	10	0.0006925	0.100032	0
	63	148	0.4988825	144.3647	-0.1514151	1	144.3648	-0.0600939	-1.583886E-006	0.0001151	10	0.0006928	0.1000159	0
	64	158	0.3985969	144.2847	-0.1480209	1	144.2847	-0.0587794	-1.604082E-006	0.0001163	10	0.0006931	0.1000079	0
