EXPLAIN
TAG	EISPOT
TITLE	LABEL	Potentiostatic EIS	Test Identifier
DATE	LABEL	2025/12/24	Date
TIME	LABEL	0:00:43	Time
NOTES	NOTES	1	Notes...
	
PSTAT	PSTAT	IFC1000-11123	Potentiostat
VDC	POTEN	0.00000E+000	T	DC Voltage (V)
FREQINIT	QUANT	1.00000E+006	Initial Freq. (Hz)
FREQFINAL	QUANT	5.00000E-001	Final Freq. (Hz)
PTSPERDEC	QUANT	1.00000E+001	Points/decade
VAC	QUANT	1.00000E+002	AC Voltage (mV rms)
AREA	QUANT	7.85000E-001	Sample Area (cm^2)
SPEED	SELECTOR	1	Optimize for:
DRIFTCOR	SELECTOR	0	Drift Correction
THD	SELECTOR	0	THD
ZGUESS	QUANT	1.00000E+002	Estimated Z (ohms)
EOC	QUANT	-7.924982E-006	Open Circuit (V)
SEQUENCER	TOGGLE	TRUE	Run as Sequence
PSTATMODEL	IQUANT	48	Pstat Model
PSTATSECTION	LABEL	IFC1000-11123	Pstat Section
PSTATSERIALNO	LABEL	11123	Pstat Serial Number
CTRLMODE	IQUANT	1	Control Mode
ELECTROMETER	IQUANT	0	RE=0 or CS=1
IESTAB	IQUANT	0	I/E Stability
CASPEED	IQUANT	3	Control Amp Speed
CONVENTION	IQUANT	1	Current Convention
ICHRANGE	IQUANT	2	Ich Range
ICHRANGEMODE	TOGGLE	F	Ich Auto Range
ICHOFFSETENABLE	TOGGLE	T	Ich Offset Enable
ICHOFFSET	QUANT	0	Ich Offset (V)
ICHFILTER	IQUANT	4	Ich Filter
VCHRANGE	IQUANT	2	Vch Range
VCHRANGEMODE	TOGGLE	F	Vch Auto Range
VCHOFFSETENABLE	TOGGLE	T	Vch Offset Enable
VCHOFFSET	QUANT	0	Vch Offset (V)
VCHFILTER	IQUANT	4	Vch Filter
IERANGELOWERLIMIT	IQUANT	4	I/E Range Lower Limit
IERANGEMODE	TOGGLE	F	I/E AutoRange
IERANGE	IQUANT	11	I/E Range
ACHSELECT	IQUANT	0	Ach Select
ACHRANGE	IQUANT	2	Ach Range
ACHOFFSETENABLE	TOGGLE	F	Ach Offset Enable
ACHOFFSET	QUANT	0	Ach Offset (V)
ACHFILTER	IQUANT	1	Ach Filter
SENSECABLEID	IQUANT	14	Sense Cable ID
PWRCABLEID	IQUANT	14	Power Cable ID
DCCALDATE	LABEL	5/23/2025	DC Calibration Date
ACCALDATE	LABEL	4/29/2023	AC Calibration Date
FRAMEWORKVERSION	LABEL	7.10.0	Framework Version
INSTRUMENTVERSION	LABEL	4.72	Instrument Version
COMMVERSION	LABEL	3.10	Communications Version
CPUPLDVERSION	LABEL	1.10	CPU PLD Version
CTRLPLDVERSION	LABEL	0.00	CTRL PLD Version
PSTATPLDVERSION	LABEL	0.00	PSTAT PLD Version
ZCURVE	TABLE
	Pt	Time	Freq	Zreal	Zimag	Zsig	Zmod	Zphz	Idc	Vdc	IERange	Imod	Vmod	Temp
	#	s	Hz	ohm	ohm	V	ohm	°	A	V	#	A	V	°C
	0	3	1000020	121.6964	-3.014513	1	121.7337	-1.41897	-1.232102E-005	0.0002711	10	0.000856	0.1000483	0
	1	5	794355.5	122.8059	-4.134477	1	122.8755	-1.928235	-1.217306E-005	0.0002709	10	0.0012636	0.1506017	0
	2	7	630996.1	123.9963	-5.093721	1	124.1009	-2.352367	-1.23459E-005	0.0002662	10	0.0011217	0.1360429	0
	3	9	501269.5	125.2571	-5.910058	1	125.3964	-2.701407	-1.267505E-005	0.0002604	10	0.0010399	0.1281129	0
	4	10	398144.5	126.582	-6.61235	1	126.7546	-2.99028	-1.2738E-005	0.000255	10	0.0009847	0.1230814	0
	5	12	316230.5	127.9612	-7.164589	1	128.1616	-3.204664	-1.280625E-005	0.0002417	10	0.0009367	0.1186952	0
	6	14	251191.4	129.3978	-7.597978	1	129.6207	-3.360435	-1.286771E-005	0.0002343	10	0.0008957	0.1150296	0
	7	16	199628.9	130.8498	-7.889518	1	131.0875	-3.45044	-1.31226E-005	0.0002097	10	0.0008545	0.1111611	0
	8	18	158496.1	132.3492	-8.021972	1	132.5921	-3.468577	-1.304976E-005	0.0002276	10	0.0008209	0.108179	0
	9	19	125918	133.8322	-8.027873	1	134.0728	-3.432751	-1.302304E-005	0.0002194	10	0.0007917	0.1056395	0
	10	21	100019.5	135.3303	-7.866632	1	135.5588	-3.32681	-1.851663E-006	0.0000994	10	0.000748	0.1009843	0
	11	23	79511.72	136.6896	-7.592232	1	136.9003	-3.179147	-1.906938E-006	0.0000966	10	0.0007632	0.1042096	0
	12	25	63105.47	138.0228	-7.175284	1	138.2091	-2.975913	-1.86304E-006	0.0000951	10	0.0007412	0.1022668	0
	13	27	50214.84	139.2145	-6.649483	1	139.3732	-2.734614	-1.856279E-006	9.319547E-005	10	0.0007268	0.1011822	0
	14	28	39902.34	140.2719	-6.049189	1	140.4023	-2.469335	-1.974197E-006	8.993398E-005	10	0.0007176	0.1006804	0
	15	30	31699.22	141.1687	-5.396435	1	141.2718	-2.189172	-1.999914E-006	9.021605E-005	10	0.0007108	0.1003733	0
	16	32	25136.72	141.9087	-4.732134	1	141.9875	-1.909896	-1.928744E-006	9.180994E-005	10	0.000706	0.100212	0
	17	34	19980.47	142.4957	-4.090658	1	142.5544	-1.644352	-1.779209E-006	9.124179E-005	10	0.0007024	0.1001183	0
	18	35	15878.91	142.9679	-3.495359	1	143.0107	-1.40052	-1.679352E-006	9.223114E-005	10	0.0006998	0.1000651	0
	19	37	12597.66	143.3369	-2.964066	1	143.3676	-1.184651	-1.603985E-006	9.208417E-005	10	0.0006979	0.1000432	0
	20	39	10019.53	143.6107	-2.49187	1	143.6323	-0.994072	-1.63041E-006	9.016716E-005	10	0.0006965	0.1000363	0
	21	41	7928.241	143.8224	-2.078747	1	143.8374	-0.8280708	2.64753E-007	0.0001454	10	0.0006954	0.1000201	0
	22	42	6307.871	143.9776	-1.737289	1	143.9881	-0.6913195	3.443574E-007	0.0001464	10	0.0006945	0.0999943	0
	23	44	5034.722	144.0952	-1.465101	1	144.1026	-0.5825398	-1.36731E-006	0.0001182	10	0.0006752	0.0970586	0
	24	46	3993.056	144.1915	-1.224621	1	144.1967	-0.4866022	-1.461542E-006	0.0001181	10	0.0007067	0.1017619	0
	25	48	3144.055	144.2712	-1.022938	1	144.2749	-0.406242	-1.509518E-006	0.0001181	10	0.0006988	0.1007403	0
	26	49	2519.531	144.3377	-0.8725697	1	144.3403	-0.3463679	-1.548997E-006	0.0001189	10	0.000695	0.1002711	0
	27	51	2000.762	144.3944	-0.7472057	1	144.3963	-0.296489	-1.514005E-006	0.0001171	10	0.0006937	0.1001431	0
	28	53	1580.669	144.4459	-0.6485362	1	144.4473	-0.2572461	-1.558928E-006	0.0001178	10	0.0006927	0.1000332	0
	29	55	1253.634	144.4888	-0.5689835	1	144.4899	-0.2256242	-1.476151E-006	0.0001179	10	0.0006923	0.1000175	0
	30	56	1000.702	144.5284	-0.5115255	1	144.5293	-0.2027845	-1.431777E-006	0.0001182	10	0.0006919	0.099989	0
	31	58	790.0281	144.5679	-0.4649841	1	144.5686	-0.1842839	-1.34336E-006	0.0001199	10	0.0006918	0.1000124	0
	32	60	628.811	144.6081	-0.4312	1	144.6087	-0.170847	-1.351073E-006	0.0001195	10	0.0006913	0.099969	0
	33	61	502.2321	144.6558	-0.4079262	1	144.6564	-0.1615724	-1.465174E-006	0.0001169	10	0.0006643	0.0954406	0
	34	63	400.1524	144.6902	-0.381021	1	144.6907	-0.1508799	-1.415056E-006	0.0001162	10	0.0007126	0.1026353	0
	35	65	315.5048	144.7352	-0.3608691	1	144.7356	-0.1428556	-1.406357E-006	0.0001182	10	0.0007008	0.1011312	0
	36	67	252.0161	144.7719	-0.3427992	1	144.7723	-0.135668	-1.390904E-006	0.0001146	10	0.0006948	0.1003957	0
	37	68	200.3205	144.815	-0.32991	1	144.8154	-0.1305281	-1.258392E-006	0.0001144	10	0.0006915	0.1000204	0
	38	70	158.0056	144.8577	-0.3163706	1	144.8581	-0.1251343	-1.242056E-006	0.0001145	10	0.0006886	0.0996729	0
	39	72	125.558	144.9038	-0.3053967	1	144.9041	-0.1207554	-1.237946E-006	0.0001166	10	0.0006844	0.0991303	0
	40	73	99.734	144.9375	-0.2926432	1	144.9378	-0.1156857	-1.269835E-006	0.0001154	10	0.0006754	0.0978593	0
	41	75	79.44915	144.9669	-0.2630397	1	144.9672	-0.103962	-1.408224E-006	0.000113	10	0.0007099	0.1028902	0
	42	77	62.91946	144.9979	-0.2649265	1	144.9982	-0.1046853	-1.426598E-006	0.0001115	10	0.0006898	0.1000115	0
	43	79	49.86702	145.0291	-0.2476573	1	145.0293	-0.0978404	-1.417001E-006	0.000115	10	0.0006898	0.1000287	0
	44	80	38.42213	145.0577	-0.2256798	1	145.0579	-0.0891403	-1.457718E-006	0.0001146	10	0.0006894	0.100002	0
	45	82	31.25	145.0791	-0.229335	1	145.0793	-0.0905707	-1.50071E-006	0.0001138	10	0.0006893	0.1000012	0
	46	84	24.93351	145.1076	-0.215628	1	145.1077	-0.0851407	-1.487502E-006	0.0001148	10	0.0006891	0.0999988	0
	47	86	20.03205	145.1374	-0.2063579	1	145.1375	-0.0814637	-1.417612E-006	0.0001133	10	0.000689	0.100001	0
	48	88	15.625	145.1695	-0.1995504	1	145.1696	-0.0787589	-1.418985E-006	0.0001153	10	0.0006888	0.0999983	0
	49	90	12.46675	145.2041	-0.1930275	1	145.2042	-0.0761663	-1.392074E-006	0.0001146	10	0.0006887	0.1000008	0
	50	92	9.9734	145.24	-0.1874089	1	145.2401	-0.073931	-1.399621E-006	0.0001167	10	0.0006885	0.0999999	0
	51	94	7.971939	145.2747	-0.1827265	1	145.2749	-0.0720666	-1.487278E-006	0.0001156	10	0.0006883	0.0999989	0
	52	96	6.351626	145.318	-0.1803858	1	145.3181	-0.0711222	-1.351173E-006	0.0001149	10	0.0006881	0.1	0
	53	99	5.013369	145.3519	-0.1773339	1	145.352	-0.0699027	-1.248113E-006	0.0001129	10	0.000688	0.0999998	0
	54	101	3.985969	145.3851	-0.1771695	1	145.3852	-0.0698219	-1.183126E-006	0.0001168	10	0.0006878	0.0999997	0
	55	104	3.175813	145.4218	-0.1760996	1	145.4219	-0.0693827	-1.225648E-006	0.0001155	10	0.0006877	0.1000002	0
	56	108	2.516103	145.457	-0.1547566	1	145.4571	-0.0609589	-1.157186E-006	0.0001162	10	0.0006623	0.0964876	0
	57	111	1.99553	145.4783	-0.1539334	1	145.4783	-0.0606258	-9.757364E-007	0.0001155	10	0.0007011	0.1020736	0
	58	116	1.587906	145.5068	-0.1562662	1	145.5069	-0.0615324	-9.550893E-007	0.0001161	10	0.0006929	0.1008565	0
	59	121	1.258052	145.5365	-0.160355	1	145.5366	-0.0631296	-9.143193E-007	0.0001159	10	0.0006895	0.1003662	0
	60	127	0.997765	145.5698	-0.1587394	1	145.5699	-0.0624793	-9.647079E-007	0.0001173	10	0.0006879	0.100155	0
	61	133	0.7927448	145.613	-0.1552546	1	145.6131	-0.0610895	-1.020887E-006	0.0001169	10	0.0006872	0.1000678	0
	62	140	0.6290258	145.6336	-0.1557538	1	145.6337	-0.0612773	-8.834603E-007	0.0001175	10	0.0006868	0.1000319	0
	63	148	0.4988825	145.6702	-0.1501915	1	145.6702	-0.0590741	-8.726963E-007	0.000117	10	0.0006866	0.1000155	0
	64	158	0.3985969	145.6652	-0.1444558	1	145.6653	-0.0568201	-9.792437E-007	0.0001165	10	0.0006866	0.1000085	0
