EXPLAIN
TAG	EISPOT
TITLE	LABEL	Potentiostatic EIS	Test Identifier
DATE	LABEL	2025/12/23	Date
TIME	LABEL	21:29:32	Time
NOTES	NOTES	1	Notes...
	
PSTAT	PSTAT	IFC1000-11123	Potentiostat
VDC	POTEN	0.00000E+000	T	DC Voltage (V)
FREQINIT	QUANT	1.00000E+006	Initial Freq. (Hz)
FREQFINAL	QUANT	5.00000E-001	Final Freq. (Hz)
PTSPERDEC	QUANT	1.00000E+001	Points/decade
VAC	QUANT	1.00000E+002	AC Voltage (mV rms)
AREA	QUANT	7.85000E-001	Sample Area (cm^2)
SPEED	SELECTOR	1	Optimize for:
DRIFTCOR	SELECTOR	0	Drift Correction
THD	SELECTOR	0	THD
ZGUESS	QUANT	1.00000E+002	Estimated Z (ohms)
EOC	QUANT	-1.070234E-005	Open Circuit (V)
SEQUENCER	TOGGLE	TRUE	Run as Sequence
PSTATMODEL	IQUANT	48	Pstat Model
PSTATSECTION	LABEL	IFC1000-11123	Pstat Section
PSTATSERIALNO	LABEL	11123	Pstat Serial Number
CTRLMODE	IQUANT	1	Control Mode
ELECTROMETER	IQUANT	0	RE=0 or CS=1
IESTAB	IQUANT	0	I/E Stability
CASPEED	IQUANT	3	Control Amp Speed
CONVENTION	IQUANT	1	Current Convention
ICHRANGE	IQUANT	2	Ich Range
ICHRANGEMODE	TOGGLE	F	Ich Auto Range
ICHOFFSETENABLE	TOGGLE	T	Ich Offset Enable
ICHOFFSET	QUANT	0	Ich Offset (V)
ICHFILTER	IQUANT	4	Ich Filter
VCHRANGE	IQUANT	2	Vch Range
VCHRANGEMODE	TOGGLE	F	Vch Auto Range
VCHOFFSETENABLE	TOGGLE	T	Vch Offset Enable
VCHOFFSET	QUANT	0	Vch Offset (V)
VCHFILTER	IQUANT	4	Vch Filter
IERANGELOWERLIMIT	IQUANT	4	I/E Range Lower Limit
IERANGEMODE	TOGGLE	F	I/E AutoRange
IERANGE	IQUANT	11	I/E Range
ACHSELECT	IQUANT	0	Ach Select
ACHRANGE	IQUANT	2	Ach Range
ACHOFFSETENABLE	TOGGLE	F	Ach Offset Enable
ACHOFFSET	QUANT	0	Ach Offset (V)
ACHFILTER	IQUANT	1	Ach Filter
SENSECABLEID	IQUANT	14	Sense Cable ID
PWRCABLEID	IQUANT	14	Power Cable ID
DCCALDATE	LABEL	5/23/2025	DC Calibration Date
ACCALDATE	LABEL	4/29/2023	AC Calibration Date
FRAMEWORKVERSION	LABEL	7.10.0	Framework Version
INSTRUMENTVERSION	LABEL	4.72	Instrument Version
COMMVERSION	LABEL	3.10	Communications Version
CPUPLDVERSION	LABEL	1.10	CPU PLD Version
CTRLPLDVERSION	LABEL	0.00	CTRL PLD Version
PSTATPLDVERSION	LABEL	0.00	PSTAT PLD Version
ZCURVE	TABLE
	Pt	Time	Freq	Zreal	Zimag	Zsig	Zmod	Zphz	Idc	Vdc	IERange	Imod	Vmod	Temp
	#	s	Hz	ohm	ohm	V	ohm	°	A	V	#	A	V	°C
	0	4	1000020	121.5674	-2.688084	1	121.5971	-1.266711	-1.175147E-005	0.0002714	10	0.0008577	0.1001345	0
	1	6	794355.5	122.61	-3.826531	1	122.6697	-1.787562	-1.167977E-005	0.0002744	10	0.0012653	0.1505607	0
	2	7	630996.1	123.7631	-4.800413	1	123.8561	-2.221225	-1.195254E-005	0.0002685	10	0.0011237	0.1360071	0
	3	9	501269.5	124.9818	-5.645209	1	125.1093	-2.586192	-1.225564E-005	0.0002557	10	0.0010422	0.1281013	0
	4	11	398144.5	126.2693	-6.374635	1	126.4301	-2.890093	-1.239108E-005	0.0002509	10	0.0009872	0.1230778	0
	5	13	316230.5	127.6634	-6.951219	1	127.8525	-3.116654	-1.251354E-005	0.0002377	10	0.0009388	0.1186839	0
	6	14	251191.4	129.0407	-7.376899	1	129.2514	-3.27188	-1.262838E-005	0.0002311	10	0.0008983	0.1150314	0
	7	16	199628.9	130.4981	-7.642834	1	130.7217	-3.351793	-1.274069E-005	0.0002124	10	0.0008569	0.1111632	0
	8	18	158496.1	131.9815	-7.767735	1	132.2099	-3.368243	-1.278374E-005	0.0002245	10	0.0008238	0.1082534	0
	9	20	125918	133.4579	-7.74149	1	133.6822	-3.319836	-1.265828E-005	0.0002195	10	0.0007937	0.1056038	0
	10	22	100019.5	134.89	-7.530465	1	135.1	-3.195318	-1.607272E-006	0.0000983	10	0.0007507	0.1010002	0
	11	23	79511.72	136.2058	-7.220887	1	136.397	-3.034669	-1.551905E-006	9.44793E-005	10	0.0007659	0.1041975	0
	12	25	63105.47	137.464	-6.778932	1	137.631	-2.823211	-1.547766E-006	9.352461E-005	10	0.0007442	0.1022549	0
	13	27	50214.84	138.581	-6.242743	1	138.7215	-2.579295	-1.648268E-006	9.027807E-005	10	0.0007303	0.1012026	0
	14	29	39902.34	139.5426	-5.635283	1	139.6563	-2.312574	-1.663326E-006	8.955022E-005	10	0.0007214	0.1006718	0
	15	31	31699.22	140.3683	-4.997278	1	140.4573	-2.038936	-1.658653E-006	9.013765E-005	10	0.0007149	0.1003665	0
	16	32	25136.72	141.0376	-4.355965	1	141.1048	-1.769026	-1.653004E-006	8.834794E-005	10	0.0007104	0.100209	0
	17	34	19980.47	141.5601	-3.744838	1	141.6096	-1.515352	-1.64035E-006	8.964969E-005	10	0.0007073	0.1001435	0
	18	36	15878.91	141.9824	-3.183313	1	142.0181	-1.284383	-1.709169E-006	9.058751E-005	10	0.0007046	0.1000607	0
	19	38	12597.66	142.2967	-2.691358	1	142.3222	-1.083546	-1.557858E-006	8.872023E-005	10	0.000703	0.1000406	0
	20	39	10019.53	142.5297	-2.25668	1	142.5476	-0.9070913	-1.623234E-006	8.786813E-005	10	0.0007018	0.1000319	0
	21	41	7928.241	142.7168	-1.881336	1	142.7292	-0.7552468	2.472812E-007	0.0001436	10	0.0007007	0.1000137	0
	22	43	6307.871	142.8614	-1.570944	1	142.87	-0.6300153	3.210196E-007	0.000141	10	0.0006999	0.0999903	0
	23	45	5034.722	142.962	-1.321241	1	142.9681	-0.5295069	-1.241497E-006	0.000117	10	0.0006808	0.097085	0
	24	46	3993.056	143.0386	-1.106588	1	143.0429	-0.4432476	-1.359685E-006	0.0001172	10	0.0007124	0.101757	0
	25	48	3144.055	143.1017	-0.9240771	1	143.1047	-0.3699815	-1.39854E-006	0.0001152	10	0.0007045	0.1007354	0
	26	50	2519.531	143.1453	-0.7904069	1	143.1475	-0.3163674	-1.402721E-006	0.0001165	10	0.0007008	0.1002666	0
	27	52	2000.762	143.1849	-0.6774929	1	143.1865	-0.2710984	-1.387177E-006	0.0001162	10	0.0006996	0.1001379	0
	28	53	1580.669	143.2169	-0.5854646	1	143.2181	-0.2342214	-1.415704E-006	0.0001177	10	0.0006986	0.1000296	0
	29	55	1253.634	143.2479	-0.5162459	1	143.2488	-0.2064853	-1.441731E-006	0.0001161	10	0.0006983	0.1000137	0
	30	57	1000.702	143.2743	-0.4617917	1	143.2751	-0.1846711	-1.396781E-006	0.0001165	10	0.0006981	0.1000163	0
	31	59	790.0281	143.2982	-0.416703	1	143.2988	-0.1666124	-1.387969E-006	0.0001189	10	0.0006977	0.0999773	0
	32	60	628.811	143.3217	-0.3805641	1	143.3222	-0.152138	-1.391646E-006	0.0001183	10	0.0006977	0.0999962	0
	33	62	502.2321	143.354	-0.3603624	1	143.3545	-0.1440294	-1.43362E-006	0.0001165	10	0.0006703	0.0954376	0
	34	64	400.1524	143.3723	-0.3326134	1	143.3727	-0.1329219	-1.46901E-006	0.0001159	10	0.0007192	0.1026304	0
	35	65	315.5048	143.3993	-0.3101902	1	143.3996	-0.1239376	-1.470368E-006	0.0001151	10	0.0007073	0.1011262	0
	36	67	252.0161	143.4227	-0.2963084	1	143.423	-0.1183718	-1.44077E-006	0.0001124	10	0.0007013	0.1003919	0
	37	69	200.3205	143.4445	-0.2798871	1	143.4448	-0.1117946	-1.403048E-006	0.0001129	10	0.0006981	0.1000139	0
	38	70	158.0056	143.4706	-0.2644303	1	143.4709	-0.1056015	-1.385518E-006	0.0001124	10	0.0006954	0.0996971	0
	39	72	125.558	143.4929	-0.2503762	1	143.4931	-0.0999735	-1.371827E-006	0.0001162	10	0.0006911	0.0991218	0
	40	74	99.734	143.5168	-0.2423656	1	143.517	-0.0967588	-1.458163E-006	0.0001123	10	0.000682	0.0978457	0
	41	76	79.44915	143.5311	-0.2172858	1	143.5313	-0.0867376	-1.55966E-006	0.0001111	10	0.0007171	0.1029115	0
	42	77	62.91946	143.5478	-0.2218651	1	143.548	-0.0885553	-1.606899E-006	0.0001102	10	0.0006968	0.1000137	0
	43	79	49.86702	143.5582	-0.2100279	1	143.5584	-0.0838246	-1.512417E-006	0.0001091	10	0.0006968	0.1000273	0
	44	81	38.42213	143.5803	-0.1945856	1	143.5804	-0.0776494	-1.399546E-006	0.0001124	10	0.0006965	0.1000028	0
	45	83	31.25	143.5922	-0.1977428	1	143.5923	-0.0789028	-1.300459E-006	0.0001128	10	0.0006964	0.1000014	0
	46	84	24.93351	143.6107	-0.1892794	1	143.6109	-0.075516	-1.182463E-006	0.0001123	10	0.0006963	0.0999982	0
	47	86	20.03205	143.6208	-0.1842764	1	143.6209	-0.0735148	-1.234403E-006	0.0001089	10	0.0006963	0.0999999	0
	48	88	15.625	143.6359	-0.1813898	1	143.636	-0.0723556	-1.230174E-006	0.0001119	10	0.0006962	0.0999996	0
	49	90	12.46675	143.6486	-0.1798061	1	143.6487	-0.0717175	-1.263103E-006	0.0001136	10	0.0006961	0.1000001	0
	50	92	9.9734	143.6626	-0.176108	1	143.6627	-0.0702357	-1.304949E-006	0.0001125	10	0.0006961	0.1000003	0
	51	94	7.971939	143.6633	-0.1764717	1	143.6634	-0.0703804	-1.32888E-006	0.000112	10	0.0006961	0.0999994	0
	52	97	6.351626	143.6615	-0.1758658	1	143.6616	-0.0701396	-1.293817E-006	0.0001117	10	0.0006961	0.0999993	0
	53	99	5.013369	143.6606	-0.1739024	1	143.6607	-0.069357	-1.34728E-006	0.0001098	10	0.0006961	0.1	0
	54	102	3.985969	143.6478	-0.1745758	1	143.6479	-0.0696318	-1.388675E-006	0.0001125	10	0.0006961	0.0999997	0
	55	105	3.175813	143.6244	-0.1774187	1	143.6245	-0.0707773	-1.386339E-006	0.0001123	10	0.0006963	0.0999999	0
	56	108	2.516103	143.6015	-0.1584732	1	143.6016	-0.0632294	-1.339793E-006	0.0001139	10	0.0006709	0.0964909	0
	57	112	1.99553	143.5626	-0.1598573	1	143.5627	-0.063799	-1.437982E-006	0.0001151	10	0.0007105	0.1020728	0
	58	116	1.587906	143.5416	-0.1637965	1	143.5417	-0.0653807	-1.511874E-006	0.0001148	10	0.0007024	0.1008561	0
	59	121	1.258052	143.521	-0.1648783	1	143.5211	-0.0658219	-1.445681E-006	0.0001154	10	0.0006992	0.1003662	0
	60	127	0.997765	143.4914	-0.1659526	1	143.4915	-0.0662644	-1.46061E-006	0.0001154	10	0.0006979	0.1001544	0
	61	133	0.7927448	143.4748	-0.1603549	1	143.4749	-0.0640367	-1.484128E-006	0.0001159	10	0.0006974	0.1000679	0
	62	140	0.6290258	143.451	-0.1588002	1	143.4511	-0.0634264	-1.556798E-006	0.0001145	10	0.0006973	0.1000315	0
	63	149	0.4988825	143.4433	-0.1553967	1	143.4434	-0.0620703	-1.552335E-006	0.0001142	10	0.0006972	0.1000158	0
	64	159	0.3985969	143.4276	-0.144999	1	143.4277	-0.0579235	-1.616199E-006	0.0001153	10	0.0006973	0.1000088	0
