EXPLAIN
TAG	EISPOT
TITLE	LABEL	Potentiostatic EIS	Test Identifier
DATE	LABEL	2025/12/23	Date
TIME	LABEL	21:20:05	Time
NOTES	NOTES	1	Notes...
	
PSTAT	PSTAT	IFC1000-11123	Potentiostat
VDC	POTEN	0.00000E+000	T	DC Voltage (V)
FREQINIT	QUANT	1.00000E+006	Initial Freq. (Hz)
FREQFINAL	QUANT	5.00000E-001	Final Freq. (Hz)
PTSPERDEC	QUANT	1.00000E+001	Points/decade
VAC	QUANT	1.00000E+002	AC Voltage (mV rms)
AREA	QUANT	7.85000E-001	Sample Area (cm^2)
SPEED	SELECTOR	1	Optimize for:
DRIFTCOR	SELECTOR	0	Drift Correction
THD	SELECTOR	0	THD
ZGUESS	QUANT	1.00000E+002	Estimated Z (ohms)
EOC	QUANT	-7.544303E-006	Open Circuit (V)
SEQUENCER	TOGGLE	TRUE	Run as Sequence
PSTATMODEL	IQUANT	48	Pstat Model
PSTATSECTION	LABEL	IFC1000-11123	Pstat Section
PSTATSERIALNO	LABEL	11123	Pstat Serial Number
CTRLMODE	IQUANT	1	Control Mode
ELECTROMETER	IQUANT	0	RE=0 or CS=1
IESTAB	IQUANT	0	I/E Stability
CASPEED	IQUANT	3	Control Amp Speed
CONVENTION	IQUANT	1	Current Convention
ICHRANGE	IQUANT	2	Ich Range
ICHRANGEMODE	TOGGLE	F	Ich Auto Range
ICHOFFSETENABLE	TOGGLE	T	Ich Offset Enable
ICHOFFSET	QUANT	0	Ich Offset (V)
ICHFILTER	IQUANT	4	Ich Filter
VCHRANGE	IQUANT	2	Vch Range
VCHRANGEMODE	TOGGLE	F	Vch Auto Range
VCHOFFSETENABLE	TOGGLE	T	Vch Offset Enable
VCHOFFSET	QUANT	0	Vch Offset (V)
VCHFILTER	IQUANT	4	Vch Filter
IERANGELOWERLIMIT	IQUANT	4	I/E Range Lower Limit
IERANGEMODE	TOGGLE	F	I/E AutoRange
IERANGE	IQUANT	11	I/E Range
ACHSELECT	IQUANT	0	Ach Select
ACHRANGE	IQUANT	2	Ach Range
ACHOFFSETENABLE	TOGGLE	F	Ach Offset Enable
ACHOFFSET	QUANT	0	Ach Offset (V)
ACHFILTER	IQUANT	1	Ach Filter
SENSECABLEID	IQUANT	14	Sense Cable ID
PWRCABLEID	IQUANT	14	Power Cable ID
DCCALDATE	LABEL	5/23/2025	DC Calibration Date
ACCALDATE	LABEL	4/29/2023	AC Calibration Date
FRAMEWORKVERSION	LABEL	7.10.0	Framework Version
INSTRUMENTVERSION	LABEL	4.72	Instrument Version
COMMVERSION	LABEL	3.10	Communications Version
CPUPLDVERSION	LABEL	1.10	CPU PLD Version
CTRLPLDVERSION	LABEL	0.00	CTRL PLD Version
PSTATPLDVERSION	LABEL	0.00	PSTAT PLD Version
ZCURVE	TABLE
	Pt	Time	Freq	Zreal	Zimag	Zsig	Zmod	Zphz	Idc	Vdc	IERange	Imod	Vmod	Temp
	#	s	Hz	ohm	ohm	V	ohm	°	A	V	#	A	V	°C
	0	3	1000020	121.217	-2.598306	1	121.2449	-1.227956	-1.208436E-005	0.0002695	10	0.0008595	0.1000615	0
	1	5	794355.5	122.2557	-3.746686	1	122.3131	-1.755354	-1.190004E-005	0.0002685	10	0.0012697	0.1506454	0
	2	7	630996.1	123.3894	-4.725121	1	123.4799	-2.193034	-1.246724E-005	0.0002722	10	0.0011265	0.1359408	0
	3	9	501269.5	124.6177	-5.587729	1	124.743	-2.567363	-1.260953E-005	0.000253	10	0.0010448	0.1280391	0
	4	11	398144.5	125.9124	-6.315032	1	126.0706	-2.871217	-1.283496E-005	0.0002511	10	0.0009896	0.1230271	0
	5	12	316230.5	127.2839	-6.830502	1	127.467	-3.071747	-1.283196E-005	0.0002406	10	0.0009446	0.1190485	0
	6	14	251191.4	128.7039	-7.302255	1	128.9109	-3.2473	-1.299237E-005	0.0002341	10	0.0009005	0.1150143	0
	7	16	199628.9	130.1649	-7.570236	1	130.3849	-3.328505	-1.309694E-005	0.0002144	10	0.0008551	0.1106452	0
	8	18	158496.1	131.6453	-7.68581	1	131.8695	-3.34129	-1.297132E-005	0.0002225	10	0.0008289	0.1086447	0
	9	20	125918	133.094	-7.653406	1	133.3139	-3.291099	-1.305509E-005	0.0002156	10	0.0007959	0.105596	0
	10	21	100019.5	134.5497	-7.466581	1	134.7567	-3.176264	-1.835029E-006	0.0000973	10	0.0007525	0.1009917	0
	11	23	79511.72	135.8514	-7.149728	1	136.0394	-3.012642	-1.925641E-006	9.359632E-005	10	0.0007683	0.1042515	0
	12	25	63105.47	137.105	-6.710328	1	137.2691	-2.801991	-1.860442E-006	9.40949E-005	10	0.0007461	0.1022494	0
	13	27	50214.84	138.2092	-6.170163	1	138.3469	-2.556195	-1.874205E-006	9.042636E-005	10	0.0007323	0.1011989	0
	14	28	39902.34	139.1667	-5.56585	1	139.2779	-2.290274	-1.825379E-006	8.929239E-005	10	0.0007233	0.1006691	0
	15	30	31699.22	139.9659	-4.925782	1	140.0525	-2.015563	-1.818118E-006	8.977752E-005	10	0.0007169	0.1003627	0
	16	32	25136.72	140.6227	-4.293617	1	140.6883	-1.748862	-1.894877E-006	8.907227E-005	10	0.0007125	0.1002067	0
	17	34	19980.47	141.1341	-3.687502	1	141.1822	-1.496664	-1.85765E-006	8.810381E-005	10	0.0007095	0.1001431	0
	18	36	15878.91	141.532	-3.140985	1	141.5668	-1.271343	-1.844659E-006	8.747683E-005	10	0.0007069	0.1000593	0
	19	37	12597.66	141.8329	-2.643857	1	141.8575	-1.067906	-1.825184E-006	8.967705E-005	10	0.0007052	0.1000347	0
	20	39	10019.53	142.0649	-2.22357	1	142.0823	-0.8967082	-1.853959E-006	8.675479E-005	10	0.0007041	0.1000302	0
	21	41	7928.241	142.23	-1.849049	1	142.2421	-0.7448266	-1.417811E-008	0.0001464	10	0.0007031	0.1000136	0
	22	43	6307.871	142.3592	-1.54155	1	142.3676	-0.6204083	-2.750471E-008	0.0001427	10	0.0007026	0.1000202	0
	23	44	5034.722	142.4501	-1.299921	1	142.456	-0.5228351	-1.674061E-006	0.0001168	10	0.000683	0.0970538	0
	24	46	3993.056	142.5248	-1.088561	1	142.529	-0.4375992	-1.659358E-006	0.0001176	10	0.000715	0.1017573	0
	25	48	3144.055	142.5882	-0.9108726	1	142.5911	-0.3660083	-1.646825E-006	0.0001152	10	0.000707	0.1007341	0
	26	50	2519.531	142.637	-0.7784551	1	142.6391	-0.3126942	-1.66754E-006	0.0001172	10	0.0007035	0.1002983	0
	27	51	2000.762	142.6828	-0.6660168	1	142.6844	-0.267444	-1.64082E-006	0.0001162	10	0.0007018	0.1001064	0
	28	53	1580.669	142.7262	-0.5769814	1	142.7274	-0.2316212	-1.520619E-006	0.0001171	10	0.0007012	0.1000595	0
	29	55	1253.634	142.7662	-0.5065166	1	142.7671	-0.2032774	-1.391045E-006	0.0001155	10	0.0007006	0.1000137	0
	30	57	1000.702	142.8025	-0.4537969	1	142.8032	-0.1820736	-1.456247E-006	0.0001165	10	0.0007002	0.0999823	0
	31	58	790.0281	142.8465	-0.4100404	1	142.8471	-0.1644669	-1.425741E-006	0.0001157	10	0.0007001	0.1000067	0
	32	60	628.811	142.8883	-0.3752941	1	142.8888	-0.1504862	-1.444437E-006	0.0001154	10	0.0006998	0.0999953	0
	33	62	502.2321	142.9418	-0.354801	1	142.9423	-0.1422156	-1.475492E-006	0.0001141	10	0.0006722	0.0954353	0
	34	63	400.1524	142.992	-0.3251686	1	142.9924	-0.1302923	-1.535906E-006	0.0001141	10	0.0007211	0.1026289	0
	35	65	315.5048	143.0294	-0.3040583	1	143.0297	-0.1218017	-1.5926E-006	0.0001147	10	0.0007091	0.1011239	0
	36	67	252.0161	143.0643	-0.2867644	1	143.0646	-0.114846	-1.64861E-006	0.0001127	10	0.0007031	0.1003908	0
	37	69	200.3205	143.1018	-0.2728024	1	143.1021	-0.1092258	-1.653921E-006	0.000113	10	0.0006997	0.1000118	0
	38	70	158.0056	143.1446	-0.2562419	1	143.1448	-0.1025646	-1.65365E-006	0.0001125	10	0.000697	0.0996949	0
	39	72	125.558	143.1865	-0.2460505	1	143.1867	-0.0984565	-1.66841E-006	0.0001166	10	0.0006926	0.0991188	0
	40	74	99.734	143.2292	-0.233962	1	143.2294	-0.0935914	-1.711549E-006	0.0001144	10	0.0006833	0.0978435	0
	41	76	79.44915	143.2665	-0.2102951	1	143.2667	-0.0841021	-1.769179E-006	0.000114	10	0.0007185	0.1029126	0
	42	77	62.91946	143.3047	-0.2121728	1	143.3049	-0.0848304	-1.821849E-006	0.0001099	10	0.000698	0.1000119	0
	43	79	49.86702	143.3417	-0.2027839	1	143.3418	-0.0810557	-1.692089E-006	0.0001115	10	0.0006979	0.1000283	0
	44	81	38.42213	143.3772	-0.1882706	1	143.3773	-0.0752359	-1.711418E-006	0.0001123	10	0.0006975	0.1000035	0
	45	83	31.25	143.413	-0.1935886	1	143.4131	-0.0773417	-1.642384E-006	0.0001131	10	0.0006973	0.0999999	0
	46	85	24.93351	143.4399	-0.1887908	1	143.4401	-0.0754107	-1.678189E-006	0.0001117	10	0.0006972	0.0999985	0
	47	86	20.03205	143.457	-0.18003	1	143.4571	-0.0719028	-1.653559E-006	0.0001097	10	0.0006971	0.1000011	0
	48	88	15.625	143.4715	-0.1790018	1	143.4716	-0.0714849	-1.715309E-006	0.0001119	10	0.000697	0.0999994	0
	49	90	12.46675	143.4837	-0.1777758	1	143.4838	-0.0709892	-1.700552E-006	0.0001116	10	0.0006969	0.0999995	0
	50	92	9.9734	143.4967	-0.1755083	1	143.4968	-0.0700774	-1.673733E-006	0.0001123	10	0.0006969	0.1000002	0
	51	95	7.971939	143.5067	-0.1750487	1	143.5069	-0.069889	-1.696794E-006	0.0001127	10	0.0006968	0.0999993	0
	52	97	6.351626	143.5095	-0.1754508	1	143.5096	-0.0700482	-1.625091E-006	0.0001122	10	0.0006968	0.0999998	0
	53	99	5.013369	143.5184	-0.1741889	1	143.5185	-0.0695401	-1.631838E-006	0.000112	10	0.0006968	0.1000002	0
	54	102	3.985969	143.5187	-0.1756601	1	143.5188	-0.0701273	-1.552208E-006	0.0001129	10	0.0006968	0.0999997	0
	55	105	3.175813	143.5146	-0.1754183	1	143.5147	-0.0700328	-1.568547E-006	0.0001116	10	0.0006968	0.0999996	0
	56	108	2.516103	143.526	-0.1596759	1	143.5261	-0.0637428	-1.51751E-006	0.0001138	10	0.0006713	0.0964913	0
	57	112	1.99553	143.5267	-0.1614188	1	143.5268	-0.0644382	-1.450963E-006	0.0001139	10	0.0007106	0.1020732	0
	58	116	1.587906	143.5312	-0.1641502	1	143.5313	-0.0655266	-1.411173E-006	0.0001133	10	0.0007024	0.1008554	0
	59	122	1.258052	143.5261	-0.1650437	1	143.5262	-0.0658856	-1.364991E-006	0.0001132	10	0.0006991	0.1003664	0
	60	128	0.997765	143.5361	-0.1663519	1	143.5362	-0.0664032	-1.363584E-006	0.0001134	10	0.0006977	0.1001547	0
	61	134	0.7927448	143.5405	-0.1635135	1	143.5406	-0.0652682	-1.271188E-006	0.000114	10	0.0006971	0.1000671	0
	62	140	0.6290258	143.5765	-0.1602497	1	143.5766	-0.0639494	-1.401385E-006	0.0001135	10	0.0006967	0.1000322	0
	63	149	0.4988825	143.618	-0.1541094	1	143.6181	-0.0614812	-1.517927E-006	0.0001133	10	0.0006964	0.1000153	0
	64	159	0.3985969	143.6545	-0.1495458	1	143.6546	-0.0596455	-1.609128E-006	0.0001147	10	0.0006962	0.1000086	0
