EXPLAIN
TAG	EISPOT
TITLE	LABEL	Potentiostatic EIS	Test Identifier
DATE	LABEL	2025/12/24	Date
TIME	LABEL	3:19:07	Time
NOTES	NOTES	1	Notes...
	
PSTAT	PSTAT	IFC1000-11123	Potentiostat
VDC	POTEN	0.00000E+000	T	DC Voltage (V)
FREQINIT	QUANT	1.00000E+006	Initial Freq. (Hz)
FREQFINAL	QUANT	5.00000E-001	Final Freq. (Hz)
PTSPERDEC	QUANT	1.00000E+001	Points/decade
VAC	QUANT	1.00000E+002	AC Voltage (mV rms)
AREA	QUANT	7.85000E-001	Sample Area (cm^2)
SPEED	SELECTOR	1	Optimize for:
DRIFTCOR	SELECTOR	0	Drift Correction
THD	SELECTOR	0	THD
ZGUESS	QUANT	1.00000E+002	Estimated Z (ohms)
EOC	QUANT	-5.39187E-006	Open Circuit (V)
SEQUENCER	TOGGLE	TRUE	Run as Sequence
PSTATMODEL	IQUANT	48	Pstat Model
PSTATSECTION	LABEL	IFC1000-11123	Pstat Section
PSTATSERIALNO	LABEL	11123	Pstat Serial Number
CTRLMODE	IQUANT	1	Control Mode
ELECTROMETER	IQUANT	0	RE=0 or CS=1
IESTAB	IQUANT	0	I/E Stability
CASPEED	IQUANT	3	Control Amp Speed
CONVENTION	IQUANT	1	Current Convention
ICHRANGE	IQUANT	2	Ich Range
ICHRANGEMODE	TOGGLE	F	Ich Auto Range
ICHOFFSETENABLE	TOGGLE	T	Ich Offset Enable
ICHOFFSET	QUANT	0	Ich Offset (V)
ICHFILTER	IQUANT	4	Ich Filter
VCHRANGE	IQUANT	2	Vch Range
VCHRANGEMODE	TOGGLE	F	Vch Auto Range
VCHOFFSETENABLE	TOGGLE	T	Vch Offset Enable
VCHOFFSET	QUANT	0	Vch Offset (V)
VCHFILTER	IQUANT	4	Vch Filter
IERANGELOWERLIMIT	IQUANT	4	I/E Range Lower Limit
IERANGEMODE	TOGGLE	F	I/E AutoRange
IERANGE	IQUANT	11	I/E Range
ACHSELECT	IQUANT	0	Ach Select
ACHRANGE	IQUANT	2	Ach Range
ACHOFFSETENABLE	TOGGLE	F	Ach Offset Enable
ACHOFFSET	QUANT	0	Ach Offset (V)
ACHFILTER	IQUANT	1	Ach Filter
SENSECABLEID	IQUANT	14	Sense Cable ID
PWRCABLEID	IQUANT	14	Power Cable ID
DCCALDATE	LABEL	5/23/2025	DC Calibration Date
ACCALDATE	LABEL	4/29/2023	AC Calibration Date
FRAMEWORKVERSION	LABEL	7.10.0	Framework Version
INSTRUMENTVERSION	LABEL	4.72	Instrument Version
COMMVERSION	LABEL	3.10	Communications Version
CPUPLDVERSION	LABEL	1.10	CPU PLD Version
CTRLPLDVERSION	LABEL	0.00	CTRL PLD Version
PSTATPLDVERSION	LABEL	0.00	PSTAT PLD Version
ZCURVE	TABLE
	Pt	Time	Freq	Zreal	Zimag	Zsig	Zmod	Zphz	Idc	Vdc	IERange	Imod	Vmod	Temp
	#	s	Hz	ohm	ohm	V	ohm	°	A	V	#	A	V	°C
	0	4	1000020	122.9562	-3.629964	1	123.0098	-1.691018	-1.223134E-005	0.0002529	10	0.0008455	0.0998648	0
	1	6	794355.5	124.1636	-4.713996	1	124.2531	-2.174248	-1.1969E-005	0.0002681	10	0.00125	0.1506561	0
	2	7	630996.1	125.4366	-5.633144	1	125.563	-2.571328	-1.248266E-005	0.0002571	10	0.0011087	0.1360471	0
	3	9	501269.5	126.7824	-6.413239	1	126.9445	-2.895816	-1.268066E-005	0.0002558	10	0.0010264	0.1280107	0
	4	11	398144.5	128.153	-7.082714	1	128.3485	-3.163385	-1.273881E-005	0.0002507	10	0.0009709	0.1228898	0
	5	13	316230.5	129.586	-7.627915	1	129.8103	-3.368756	-1.297736E-005	0.0002273	10	0.0009258	0.1188234	0
	6	15	251191.4	131.061	-8.048894	1	131.3079	-3.514311	-1.309729E-005	0.000229	10	0.0008849	0.115124	0
	7	16	199628.9	132.5781	-8.329715	1	132.8395	-3.595097	-1.322522E-005	0.00021	10	0.0008399	0.1107317	0
	8	18	158496.1	134.1581	-8.49156	1	134.4265	-3.621716	-1.321237E-005	0.0002241	10	0.0008123	0.1085267	0
	9	20	125918	135.7223	-8.514862	1	135.9892	-3.589882	-1.323223E-005	0.0002173	10	0.0007804	0.105624	0
	10	22	100019.5	137.2658	-8.371898	1	137.5208	-3.49017	-2.000461E-006	0.0000974	10	0.0007373	0.1009833	0
	11	23	79511.72	138.7206	-8.129661	1	138.9586	-3.353959	-2.029783E-006	0.0000954	10	0.0007518	0.104201	0
	12	25	63105.47	140.139	-7.728276	1	140.3519	-3.156506	-1.98849E-006	9.147497E-005	10	0.0007298	0.1022544	0
	13	27	50214.84	141.4282	-7.217646	1	141.6123	-2.921497	-2.034456E-006	9.0271E-005	10	0.0007154	0.1011946	0
	14	29	39902.34	142.5994	-6.604358	1	142.7523	-2.651705	-2.023286E-006	8.964498E-005	10	0.0007056	0.1006595	0
	15	31	31699.22	143.5963	-5.928042	1	143.7186	-2.363982	-1.945514E-006	8.732214E-005	10	0.0006988	0.1003803	0
	16	32	25136.72	144.4512	-5.227765	1	144.5458	-2.07266	-2.02879E-006	9.050895E-005	10	0.0006933	0.1001863	0
	17	34	19980.47	145.1489	-4.549912	1	145.2202	-1.795435	-2.022527E-006	8.979591E-005	10	0.0006896	0.1001191	0
	18	36	15878.91	145.69	-3.908284	1	145.7424	-1.53665	-2.087743E-006	8.733133E-005	10	0.0006869	0.1000988	0
	19	38	12597.66	146.1228	-3.316109	1	146.1604	-1.300047	-2.054341E-006	8.718425E-005	10	0.0006843	0.1000144	0
	20	39	10019.53	146.4443	-2.803515	1	146.4712	-1.096731	-2.081766E-006	8.778222E-005	10	0.000683	0.1000376	0
	21	41	7928.241	146.6987	-2.345855	1	146.7174	-0.9161377	-1.511871E-007	0.0001443	10	0.0006817	0.1000189	0
	22	43	6307.871	146.8795	-1.961286	1	146.8926	-0.7650269	-1.044456E-007	0.0001447	10	0.0006808	0.0999971	0
	23	45	5034.722	147.0234	-1.650579	1	147.0326	-0.6432121	-1.635402E-006	0.0001174	10	0.0006618	0.0970604	0
	24	46	3993.056	147.132	-1.381144	1	147.1385	-0.5378258	-1.544682E-006	0.0001181	10	0.0006926	0.1017634	0
	25	48	3144.055	147.2192	-1.150038	1	147.2236	-0.4475705	-1.571908E-006	0.0001159	10	0.0006848	0.100741	0
	26	50	2519.531	147.2791	-0.979191	1	147.2823	-0.3809277	-1.598172E-006	0.0001153	10	0.0006812	0.1002722	0
	27	52	2000.762	147.3331	-0.8350064	1	147.3355	-0.3247188	-1.670101E-006	0.000117	10	0.0006797	0.1001121	0
	28	53	1580.669	147.3788	-0.7186869	1	147.3806	-0.2793983	-1.653584E-006	0.0001169	10	0.0006791	0.1000673	0
	29	55	1253.634	147.4171	-0.6299078	1	147.4184	-0.2448213	-1.65173E-006	0.0001179	10	0.0006786	0.1000191	0
	30	57	1000.702	147.4596	-0.5616009	1	147.4607	-0.2182103	-1.626573E-006	0.0001181	10	0.0006781	0.0999896	0
	31	59	790.0281	147.4981	-0.5076326	1	147.499	-0.1971896	-1.640661E-006	0.0001166	10	0.0006779	0.0999832	0
	32	60	628.811	147.5425	-0.4679161	1	147.5432	-0.1817072	-1.604175E-006	0.0001174	10	0.0006778	0.1000012	0
	33	62	502.2321	147.5925	-0.4447038	1	147.5931	-0.1726346	-1.610245E-006	0.0001149	10	0.0006511	0.0954417	0
	34	64	400.1524	147.6317	-0.4133506	1	147.6322	-0.1604207	-1.710338E-006	0.0001137	10	0.0006984	0.1026366	0
	35	65	315.5048	147.6814	-0.3923386	1	147.6819	-0.1522148	-1.654732E-006	0.0001159	10	0.0006868	0.1011326	0
	36	67	252.0161	147.7222	-0.3735954	1	147.7226	-0.144903	-1.595445E-006	0.0001123	10	0.0006807	0.1003662	0
	37	69	200.3205	147.7718	-0.3591326	1	147.7722	-0.1392468	-1.690285E-006	0.0001133	10	0.0006777	0.1000222	0
	38	70	158.0056	147.8218	-0.3454158	1	147.8222	-0.1338831	-1.653266E-006	0.0001115	10	0.000675	0.0997064	0
	39	72	125.558	147.8787	-0.3325892	1	147.8791	-0.1288619	-1.592843E-006	0.0001162	10	0.0006705	0.0991033	0
	40	74	99.734	147.9323	-0.3182643	1	147.9326	-0.1232671	-1.617753E-006	0.0001132	10	0.0006617	0.0978619	0
	41	76	79.44915	147.9767	-0.2888625	1	147.9769	-0.1118459	-1.747447E-006	0.0001119	10	0.0006955	0.1028926	0
	42	77	62.91946	148.02	-0.2872803	1	148.0203	-0.1112007	-1.733666E-006	0.0001114	10	0.0006758	0.1000137	0
	43	79	49.86702	148.0566	-0.2757066	1	148.0568	-0.1066944	-1.729705E-006	0.0001135	10	0.0006757	0.100029	0
	44	81	38.42213	148.0921	-0.2503506	1	148.0923	-0.0968588	-1.654024E-006	0.0001138	10	0.0006753	0.1000016	0
	45	83	31.25	148.1233	-0.2467847	1	148.1235	-0.0954591	-1.72896E-006	0.0001129	10	0.0006751	0.1000021	0
	46	85	24.93351	148.1483	-0.2352993	1	148.1485	-0.091001	-1.731511E-006	0.0001144	10	0.000675	0.0999987	0
	47	86	20.03205	148.1697	-0.2208429	1	148.1699	-0.0853977	-1.751013E-006	0.0001106	10	0.0006749	0.0999999	0
	48	88	15.625	148.1958	-0.212467	1	148.196	-0.0821444	-1.693918E-006	0.0001135	10	0.0006748	0.0999987	0
	49	90	12.46675	148.2161	-0.203367	1	148.2163	-0.0786153	-1.687903E-006	0.0001138	10	0.0006747	0.0999999	0
	50	92	9.9734	148.2302	-0.1969981	1	148.2303	-0.0761461	-1.663075E-006	0.0001141	10	0.0006746	0.1000012	0
	51	95	7.971939	148.2345	-0.1890927	1	148.2346	-0.0730883	-1.739827E-006	0.0001133	10	0.0006746	0.0999988	0
	52	97	6.351626	148.2473	-0.1834249	1	148.2474	-0.0708915	-1.796602E-006	0.0001129	10	0.0006745	0.0999999	0
	53	99	5.013369	148.2547	-0.1797489	1	148.2548	-0.0694673	-1.82321E-006	0.0001105	10	0.0006745	0.1000004	0
	54	102	3.985969	148.253	-0.1762534	1	148.2531	-0.0681171	-1.747996E-006	0.0001139	10	0.0006745	0.099999	0
	55	105	3.175813	148.2536	-0.1766766	1	148.2537	-0.0682804	-1.736876E-006	0.0001126	10	0.0006745	0.0999998	0
	56	108	2.516103	148.2513	-0.1517669	1	148.2513	-0.0586545	-1.723523E-006	0.0001162	10	0.0006498	0.0964875	0
	57	112	1.99553	148.2286	-0.1496166	1	148.2286	-0.0578323	-1.747032E-006	0.0001165	10	0.0006881	0.1020733	0
	58	116	1.587906	148.2436	-0.1538914	1	148.2437	-0.0594786	-1.805367E-006	0.0001163	10	0.0006801	0.1008563	0
	59	122	1.258052	148.2438	-0.1580756	1	148.2439	-0.0610957	-1.744415E-006	0.0001163	10	0.0006769	0.1003666	0
	60	128	0.997765	148.2575	-0.1569497	1	148.2576	-0.060655	-1.761294E-006	0.0001159	10	0.0006755	0.1001553	0
	61	134	0.7927448	148.2915	-0.1553569	1	148.2916	-0.0600256	-1.829705E-006	0.0001147	10	0.0006748	0.1000673	0
	62	141	0.6290258	148.3185	-0.151254	1	148.3186	-0.0584298	-1.694367E-006	0.0001148	10	0.0006744	0.1000316	0
	63	149	0.4988825	148.3254	-0.1483434	1	148.3255	-0.0573027	-1.852383E-006	0.0001146	10	0.0006743	0.1000156	0
	64	159	0.3985969	148.3139	-0.1423054	1	148.314	-0.0549746	-1.816006E-006	0.0001146	10	0.0006743	0.1000084	0
