EXPLAIN
TAG	EISPOT
TITLE	LABEL	Potentiostatic EIS	Test Identifier
DATE	LABEL	2025/12/24	Date
TIME	LABEL	1:35:12	Time
NOTES	NOTES	1	Notes...
	
PSTAT	PSTAT	IFC1000-11123	Potentiostat
VDC	POTEN	0.00000E+000	T	DC Voltage (V)
FREQINIT	QUANT	1.00000E+006	Initial Freq. (Hz)
FREQFINAL	QUANT	5.00000E-001	Final Freq. (Hz)
PTSPERDEC	QUANT	1.00000E+001	Points/decade
VAC	QUANT	1.00000E+002	AC Voltage (mV rms)
AREA	QUANT	7.85000E-001	Sample Area (cm^2)
SPEED	SELECTOR	1	Optimize for:
DRIFTCOR	SELECTOR	0	Drift Correction
THD	SELECTOR	0	THD
ZGUESS	QUANT	1.00000E+002	Estimated Z (ohms)
EOC	QUANT	-7.258037E-006	Open Circuit (V)
SEQUENCER	TOGGLE	TRUE	Run as Sequence
PSTATMODEL	IQUANT	48	Pstat Model
PSTATSECTION	LABEL	IFC1000-11123	Pstat Section
PSTATSERIALNO	LABEL	11123	Pstat Serial Number
CTRLMODE	IQUANT	1	Control Mode
ELECTROMETER	IQUANT	0	RE=0 or CS=1
IESTAB	IQUANT	0	I/E Stability
CASPEED	IQUANT	3	Control Amp Speed
CONVENTION	IQUANT	1	Current Convention
ICHRANGE	IQUANT	2	Ich Range
ICHRANGEMODE	TOGGLE	F	Ich Auto Range
ICHOFFSETENABLE	TOGGLE	T	Ich Offset Enable
ICHOFFSET	QUANT	0	Ich Offset (V)
ICHFILTER	IQUANT	4	Ich Filter
VCHRANGE	IQUANT	2	Vch Range
VCHRANGEMODE	TOGGLE	F	Vch Auto Range
VCHOFFSETENABLE	TOGGLE	T	Vch Offset Enable
VCHOFFSET	QUANT	0	Vch Offset (V)
VCHFILTER	IQUANT	4	Vch Filter
IERANGELOWERLIMIT	IQUANT	4	I/E Range Lower Limit
IERANGEMODE	TOGGLE	F	I/E AutoRange
IERANGE	IQUANT	11	I/E Range
ACHSELECT	IQUANT	0	Ach Select
ACHRANGE	IQUANT	2	Ach Range
ACHOFFSETENABLE	TOGGLE	F	Ach Offset Enable
ACHOFFSET	QUANT	0	Ach Offset (V)
ACHFILTER	IQUANT	1	Ach Filter
SENSECABLEID	IQUANT	14	Sense Cable ID
PWRCABLEID	IQUANT	14	Power Cable ID
DCCALDATE	LABEL	5/23/2025	DC Calibration Date
ACCALDATE	LABEL	4/29/2023	AC Calibration Date
FRAMEWORKVERSION	LABEL	7.10.0	Framework Version
INSTRUMENTVERSION	LABEL	4.72	Instrument Version
COMMVERSION	LABEL	3.10	Communications Version
CPUPLDVERSION	LABEL	1.10	CPU PLD Version
CTRLPLDVERSION	LABEL	0.00	CTRL PLD Version
PSTATPLDVERSION	LABEL	0.00	PSTAT PLD Version
ZCURVE	TABLE
	Pt	Time	Freq	Zreal	Zimag	Zsig	Zmod	Zphz	Idc	Vdc	IERange	Imod	Vmod	Temp
	#	s	Hz	ohm	ohm	V	ohm	°	A	V	#	A	V	°C
	0	3	1000020	122.4281	-3.340756	1	122.4736	-1.563071	-1.270123E-005	0.0002628	10	0.0008517	0.1001489	0
	1	5	794355.5	123.5977	-4.443588	1	123.6776	-2.059013	-1.232713E-005	0.0002608	10	0.0012542	0.1504575	0
	2	7	630996.1	124.8266	-5.369975	1	124.9421	-2.463315	-1.28532E-005	0.0002619	10	0.0011134	0.1359481	0
	3	9	501269.5	126.1142	-6.188753	1	126.266	-2.809399	-1.291583E-005	0.0002522	10	0.0010335	0.1282123	0
	4	10	398144.5	127.4664	-6.865705	1	127.6512	-3.083134	-1.304956E-005	0.0002578	10	0.0009757	0.1228159	0
	5	12	316230.5	128.8624	-7.415531	1	129.0755	-3.293519	-1.321206E-005	0.0002378	10	0.0009306	0.1187665	0
	6	14	251191.4	130.3366	-7.833902	1	130.5718	-3.439633	-1.331902E-005	0.0002327	10	0.0008896	0.1150846	0
	7	16	199628.9	131.8369	-8.118277	1	132.0867	-3.523719	-1.34608E-005	0.0002128	10	0.0008483	0.1112023	0
	8	17	158496.1	133.3616	-8.270974	1	133.6178	-3.54889	-1.334383E-005	0.0002263	10	0.0008148	0.1082113	0
	9	19	125918	134.8953	-8.29274	1	135.1499	-3.517853	-1.335207E-005	0.0002176	10	0.0007852	0.105608	0
	10	21	100019.5	136.423	-8.138939	1	136.6655	-3.414196	-2.151103E-006	0.0000991	10	0.0007418	0.1009719	0
	11	23	79511.72	137.8463	-7.879749	1	138.0714	-3.271655	-2.134187E-006	9.46824E-005	10	0.0007568	0.1042235	0
	12	25	63105.47	139.2214	-7.474823	1	139.4219	-3.073271	-2.152884E-006	9.391637E-005	10	0.0007346	0.1022466	0
	13	26	50214.84	140.4622	-6.955195	1	140.6342	-2.834772	-2.211582E-006	9.464938E-005	10	0.0007203	0.1011891	0
	14	28	39902.34	141.57	-6.346029	1	141.7121	-2.566628	-2.317535E-006	9.020674E-005	10	0.000711	0.1006862	0
	15	30	31699.22	142.5242	-5.683583	1	142.6375	-2.283632	-2.313892E-006	9.070931E-005	10	0.0007041	0.1003783	0
	16	32	25136.72	143.3074	-4.993321	1	143.3944	-1.995574	-2.28506E-006	9.001978E-005	10	0.0006989	0.1001859	0
	17	33	19980.47	143.9378	-4.333429	1	144.003	-1.724441	-2.243035E-006	9.065378E-005	10	0.0006954	0.1001209	0
	18	35	15878.91	144.4464	-3.712346	1	144.494	-1.472207	-2.194346E-006	8.909834E-005	10	0.0006928	0.100097	0
	19	37	12597.66	144.8416	-3.14899	1	144.8758	-1.245467	-2.238814E-006	8.865236E-005	10	0.0006904	0.1000156	0
	20	39	10019.53	145.1511	-2.658048	1	145.1754	-1.049099	-2.279584E-006	8.847495E-005	10	0.0006891	0.1000401	0
	21	40	7928.241	145.387	-2.220701	1	145.4039	-0.8750911	-3.821192E-007	0.0001439	10	0.0006879	0.1000216	0
	22	42	6307.871	145.5636	-1.857019	1	145.5755	-0.7309076	-4.219307E-007	0.000145	10	0.0006869	0.0999972	0
	23	44	5034.722	145.6939	-1.561158	1	145.7022	-0.6139199	-2.049852E-006	0.0001192	10	0.0006678	0.0970607	0
	24	46	3993.056	145.797	-1.303234	1	145.8028	-0.5121358	-2.068849E-006	0.0001184	10	0.000699	0.1017635	0
	25	47	3144.055	145.8804	-1.089675	1	145.8845	-0.4279714	-2.036288E-006	0.0001174	10	0.0006911	0.1007415	0
	26	49	2519.531	145.9363	-0.9281047	1	145.9393	-0.3643765	-2.050603E-006	0.0001178	10	0.0006874	0.1002724	0
	27	51	2000.762	145.9889	-0.7917567	1	145.991	-0.3107352	-2.032491E-006	0.0001184	10	0.000686	0.1001138	0
	28	53	1580.669	146.0363	-0.68176	1	146.0379	-0.2674793	-2.076859E-006	0.0001173	10	0.0006853	0.100067	0
	29	55	1253.634	146.0796	-0.5984629	1	146.0808	-0.2347297	-2.040178E-006	0.0001171	10	0.0006846	0.0999885	0
	30	56	1000.702	146.1202	-0.5372282	1	146.1212	-0.2106537	-2.092607E-006	0.0001161	10	0.0006846	0.100021	0
	31	58	790.0281	146.1629	-0.4865325	1	146.1637	-0.1907198	-2.072608E-006	0.0001183	10	0.0006841	0.0999825	0
	32	60	628.811	146.2015	-0.4485702	1	146.2022	-0.1757923	-2.038458E-006	0.0001159	10	0.000684	0.1000012	0
	33	61	502.2321	146.2571	-0.4265038	1	146.2577	-0.1670812	-2.054785E-006	0.0001149	10	0.000657	0.0954427	0
	34	63	400.1524	146.2942	-0.3967759	1	146.2947	-0.155396	-2.056664E-006	0.0001143	10	0.0007048	0.1026374	0
	35	65	315.5048	146.3389	-0.3755685	1	146.3394	-0.1470453	-2.073206E-006	0.0001142	10	0.0006929	0.1011007	0
	36	66	252.0161	146.3812	-0.360079	1	146.3817	-0.14094	-2.066384E-006	0.0001129	10	0.0006872	0.1003969	0
	37	68	200.3205	146.4252	-0.3446967	1	146.4257	-0.1348786	-2.027436E-006	0.0001124	10	0.0006839	0.1000222	0
	38	70	158.0056	146.4705	-0.3290817	1	146.4709	-0.1287287	-2.069091E-006	0.0001133	10	0.000681	0.099675	0
	39	72	125.558	146.5088	-0.3170323	1	146.5091	-0.1239829	-2.054323E-006	0.0001143	10	0.000677	0.0991336	0
	40	73	99.734	146.5486	-0.3060288	1	146.549	-0.1196472	-2.029274E-006	0.0001118	10	0.000668	0.0978635	0
	41	75	79.44915	146.5801	-0.2775388	1	146.5804	-0.1084853	-2.170324E-006	0.0001141	10	0.000702	0.1028847	0
	42	77	62.91946	146.6258	-0.2752545	1	146.626	-0.1075589	-2.068633E-006	0.0001114	10	0.0006822	0.100011	0
	43	78	49.86702	146.6595	-0.2635466	1	146.6597	-0.1029603	-2.042245E-006	0.0001129	10	0.0006821	0.1000286	0
	44	80	38.42213	146.6907	-0.2396023	1	146.6909	-0.093586	-2.013445E-006	0.0001129	10	0.0006817	0.1000015	0
	45	82	31.25	146.7133	-0.2397352	1	146.7135	-0.0936234	-2.028629E-006	0.0001123	10	0.0006816	0.1000018	0
	46	84	24.93351	146.7305	-0.2269426	1	146.7306	-0.0886172	-2.086418E-006	0.0001141	10	0.0006815	0.0999983	0
	47	86	20.03205	146.7479	-0.215422	1	146.7481	-0.0841086	-2.162348E-006	0.0001117	10	0.0006814	0.1000001	0
	48	88	15.625	146.7688	-0.2059903	1	146.7689	-0.0804147	-2.12673E-006	0.0001136	10	0.0006813	0.0999991	0
	49	90	12.46675	146.7869	-0.1997112	1	146.787	-0.0779539	-2.176989E-006	0.0001132	10	0.0006813	0.1000004	0
	50	92	9.9734	146.7966	-0.1934278	1	146.7967	-0.0754962	-2.177798E-006	0.0001136	10	0.0006812	0.1000001	0
	51	94	7.971939	146.8058	-0.1860147	1	146.8059	-0.0725983	-2.137677E-006	0.0001131	10	0.0006812	0.099999	0
	52	96	6.351626	146.8134	-0.1832461	1	146.8135	-0.0715141	-2.181513E-006	0.0001144	10	0.0006811	0.1000003	0
	53	99	5.013369	146.8159	-0.1795633	1	146.816	-0.0700756	-2.193974E-006	0.0001107	10	0.0006811	0.1000001	0
	54	101	3.985969	146.8147	-0.175399	1	146.8148	-0.068451	-2.197972E-006	0.0001131	10	0.0006811	0.0999997	0
	55	104	3.175813	146.8113	-0.1746102	1	146.8114	-0.0681448	-2.113079E-006	0.0001136	10	0.0006811	0.0999996	0
	56	107	2.516103	146.8083	-0.1527658	1	146.8084	-0.0596208	-1.880042E-006	0.0001156	10	0.0006562	0.0964881	0
	57	111	1.99553	146.7758	-0.1513443	1	146.7759	-0.0590791	-1.93546E-006	0.0001142	10	0.0006949	0.1020723	0
	58	116	1.587906	146.7604	-0.1563662	1	146.7604	-0.0610459	-1.865279E-006	0.0001154	10	0.000687	0.100857	0
	59	121	1.258052	146.7587	-0.1590294	1	146.7588	-0.0620863	-1.852287E-006	0.0001143	10	0.0006837	0.1003663	0
	60	127	0.997765	146.7714	-0.1591188	1	146.7715	-0.0621159	-1.583935E-006	0.0001157	10	0.0006823	0.1001552	0
	61	133	0.7927448	146.7834	-0.1568863	1	146.7834	-0.0612394	-1.491893E-006	0.0001164	10	0.0006817	0.1000677	0
	62	140	0.6290258	146.8252	-0.152834	1	146.8252	-0.0596406	-1.307979E-006	0.0001166	10	0.0006813	0.1000311	0
	63	148	0.4988825	146.8489	-0.1474232	1	146.849	-0.0575198	-1.353708E-006	0.0001155	10	0.0006811	0.1000165	0
	64	158	0.3985969	146.8751	-0.1437067	1	146.8752	-0.0560598	-1.496513E-006	0.0001167	10	0.0006809	0.1000083	0
