EXPLAIN
TAG	EISPOT
TITLE	LABEL	Potentiostatic EIS	Test Identifier
DATE	LABEL	2025/12/23	Date
TIME	LABEL	22:07:20	Time
NOTES	NOTES	1	Notes...
	
PSTAT	PSTAT	IFC1000-11123	Potentiostat
VDC	POTEN	0.00000E+000	T	DC Voltage (V)
FREQINIT	QUANT	1.00000E+006	Initial Freq. (Hz)
FREQFINAL	QUANT	5.00000E-001	Final Freq. (Hz)
PTSPERDEC	QUANT	1.00000E+001	Points/decade
VAC	QUANT	1.00000E+002	AC Voltage (mV rms)
AREA	QUANT	7.85000E-001	Sample Area (cm^2)
SPEED	SELECTOR	1	Optimize for:
DRIFTCOR	SELECTOR	0	Drift Correction
THD	SELECTOR	0	THD
ZGUESS	QUANT	1.00000E+002	Estimated Z (ohms)
EOC	QUANT	-7.733733E-006	Open Circuit (V)
SEQUENCER	TOGGLE	TRUE	Run as Sequence
PSTATMODEL	IQUANT	48	Pstat Model
PSTATSECTION	LABEL	IFC1000-11123	Pstat Section
PSTATSERIALNO	LABEL	11123	Pstat Serial Number
CTRLMODE	IQUANT	1	Control Mode
ELECTROMETER	IQUANT	0	RE=0 or CS=1
IESTAB	IQUANT	0	I/E Stability
CASPEED	IQUANT	3	Control Amp Speed
CONVENTION	IQUANT	1	Current Convention
ICHRANGE	IQUANT	2	Ich Range
ICHRANGEMODE	TOGGLE	F	Ich Auto Range
ICHOFFSETENABLE	TOGGLE	T	Ich Offset Enable
ICHOFFSET	QUANT	0	Ich Offset (V)
ICHFILTER	IQUANT	4	Ich Filter
VCHRANGE	IQUANT	2	Vch Range
VCHRANGEMODE	TOGGLE	F	Vch Auto Range
VCHOFFSETENABLE	TOGGLE	T	Vch Offset Enable
VCHOFFSET	QUANT	0	Vch Offset (V)
VCHFILTER	IQUANT	4	Vch Filter
IERANGELOWERLIMIT	IQUANT	4	I/E Range Lower Limit
IERANGEMODE	TOGGLE	F	I/E AutoRange
IERANGE	IQUANT	11	I/E Range
ACHSELECT	IQUANT	0	Ach Select
ACHRANGE	IQUANT	2	Ach Range
ACHOFFSETENABLE	TOGGLE	F	Ach Offset Enable
ACHOFFSET	QUANT	0	Ach Offset (V)
ACHFILTER	IQUANT	1	Ach Filter
SENSECABLEID	IQUANT	14	Sense Cable ID
PWRCABLEID	IQUANT	14	Power Cable ID
DCCALDATE	LABEL	5/23/2025	DC Calibration Date
ACCALDATE	LABEL	4/29/2023	AC Calibration Date
FRAMEWORKVERSION	LABEL	7.10.0	Framework Version
INSTRUMENTVERSION	LABEL	4.72	Instrument Version
COMMVERSION	LABEL	3.10	Communications Version
CPUPLDVERSION	LABEL	1.10	CPU PLD Version
CTRLPLDVERSION	LABEL	0.00	CTRL PLD Version
PSTATPLDVERSION	LABEL	0.00	PSTAT PLD Version
ZCURVE	TABLE
	Pt	Time	Freq	Zreal	Zimag	Zsig	Zmod	Zphz	Idc	Vdc	IERange	Imod	Vmod	Temp
	#	s	Hz	ohm	ohm	V	ohm	°	A	V	#	A	V	°C
	0	4	1000020	121.4345	-2.758784	1	121.4659	-1.301438	-1.236892E-005	0.000269	10	0.0008584	0.1001062	0
	1	5	794355.5	122.4903	-3.894565	1	122.5522	-1.8211	-1.233132E-005	0.0002712	10	0.0012661	0.1505077	0
	2	7	630996.1	123.6509	-4.864166	1	123.7466	-2.252733	-1.268185E-005	0.0002651	10	0.0011244	0.1359752	0
	3	9	501269.5	124.8612	-5.6856	1	124.9905	-2.607184	-1.2923E-005	0.0002518	10	0.001043	0.1280791	0
	4	11	398144.5	126.1787	-6.408143	1	126.3413	-2.90734	-1.315241E-005	0.0002485	10	0.0009877	0.1230559	0
	5	13	316230.5	127.4864	-6.949081	1	127.6757	-3.120014	-1.306481E-005	0.0002393	10	0.0009432	0.1190715	0
	6	14	251191.4	128.9641	-7.405423	1	129.1765	-3.28645	-1.319907E-005	0.0002297	10	0.0008952	0.1145686	0
	7	16	199628.9	130.4079	-7.683976	1	130.6341	-3.372119	-1.335765E-005	0.0002096	10	0.0008574	0.1111586	0
	8	18	158496.1	131.8896	-7.809489	1	132.1206	-3.388659	-1.334993E-005	0.0002261	10	0.0008258	0.1084375	0
	9	20	125918	133.3578	-7.777268	1	133.5844	-3.337642	-1.334139E-005	0.0002191	10	0.0007945	0.1056291	0
	10	22	100019.5	134.8071	-7.599298	1	135.0211	-3.226442	-2.234733E-006	0.0001009	10	0.0007509	0.1009716	0
	11	23	79511.72	136.1385	-7.30447	1	136.3343	-3.071244	-2.264292E-006	0.0000972	10	0.0007665	0.1042264	0
	12	25	63105.47	137.4144	-6.868434	1	137.586	-2.861454	-2.354413E-006	9.474525E-005	10	0.0007445	0.1022547	0
	13	27	50214.84	138.5535	-6.344957	1	138.6987	-2.621988	-2.388437E-006	9.321189E-005	10	0.0007305	0.1012034	0
	14	29	39902.34	139.5468	-5.737057	1	139.6646	-2.354223	-2.411812E-006	9.104511E-005	10	0.0007213	0.1006728	0
	15	30	31699.22	140.3901	-5.0951	1	140.4825	-2.078492	-2.374419E-006	9.145145E-005	10	0.0007148	0.100367	0
	16	32	25136.72	141.0846	-4.446068	1	141.1546	-1.804993	-2.398629E-006	9.229913E-005	10	0.0007101	0.1002072	0
	17	34	19980.47	141.6214	-3.827308	1	141.6731	-1.548038	-2.309026E-006	9.019661E-005	10	0.000707	0.1001431	0
	18	36	15878.91	142.046	-3.266854	1	142.0836	-1.317489	-2.334351E-006	8.990194E-005	10	0.0007043	0.100059	0
	19	37	12597.66	142.3666	-2.752548	1	142.3932	-1.107632	-2.288872E-006	8.978567E-005	10	0.0007026	0.10004	0
	20	39	10019.53	142.6135	-2.313883	1	142.6323	-0.9295339	-2.242062E-006	8.981401E-005	10	0.0007014	0.1000331	0
	21	41	7928.241	142.8012	-1.928488	1	142.8142	-0.7737154	-3.575115E-007	0.0001462	10	0.0007003	0.1000137	0
	22	43	6307.871	142.9409	-1.61005	1	142.9499	-0.6453381	-3.581553E-007	0.0001457	10	0.0006995	0.0999926	0
	23	44	5034.722	143.045	-1.357237	1	143.0515	-0.5436163	-1.96351E-006	0.0001172	10	0.0006804	0.0970843	0
	24	46	3993.056	143.1286	-1.13665	1	143.1331	-0.4550024	-1.964255E-006	0.0001186	10	0.000712	0.1017582	0
	25	48	3144.055	143.1926	-0.95102	1	143.1958	-0.3805271	-1.873663E-006	0.0001179	10	0.0007041	0.1007357	0
	26	50	2519.531	143.2384	-0.8125335	1	143.2407	-0.3250124	-1.876068E-006	0.0001176	10	0.0007004	0.1002673	0
	27	52	2000.762	143.2821	-0.6963085	1	143.2838	-0.2784384	-1.798389E-006	0.0001194	10	0.0006989	0.100107	0
	28	53	1580.669	143.3172	-0.6042542	1	143.3185	-0.2415692	-1.793934E-006	0.00012	10	0.0006983	0.1000622	0
	29	55	1253.634	143.3528	-0.5323078	1	143.3538	-0.2127537	-1.789067E-006	0.0001186	10	0.0006978	0.1000141	0
	30	57	1000.702	143.3885	-0.4774343	1	143.3893	-0.1907745	-1.696032E-006	0.0001202	10	0.0006976	0.1000155	0
	31	58	790.0281	143.4228	-0.432794	1	143.4234	-0.1728958	-1.666887E-006	0.0001182	10	0.0006971	0.0999778	0
	32	60	628.811	143.4532	-0.3989884	1	143.4538	-0.1593571	-1.605214E-006	0.0001191	10	0.0006971	0.0999969	0
	33	62	502.2321	143.4949	-0.3790091	1	143.4955	-0.1513333	-1.682168E-006	0.0001171	10	0.0006696	0.0954359	0
	34	64	400.1524	143.5217	-0.3527153	1	143.5221	-0.1408084	-1.68489E-006	0.0001169	10	0.0007184	0.1026307	0
	35	65	315.5048	143.5554	-0.3310783	1	143.5557	-0.1321397	-1.778116E-006	0.0001153	10	0.0007065	0.1011242	0
	36	67	252.0161	143.5917	-0.3131125	1	143.5921	-0.1249375	-1.796815E-006	0.0001145	10	0.0007005	0.1003911	0
	37	69	200.3205	143.6312	-0.3005334	1	143.6315	-0.1198853	-1.847077E-006	0.0001135	10	0.0006972	0.1000153	0
	38	70	158.0056	143.6637	-0.2857017	1	143.664	-0.113943	-1.860524E-006	0.0001139	10	0.0006945	0.0996959	0
	39	72	125.558	143.6952	-0.2711831	1	143.6954	-0.1081291	-1.78068E-006	0.0001153	10	0.0006899	0.0990898	0
	40	74	99.734	143.7268	-0.2622335	1	143.727	-0.1045377	-1.848722E-006	0.000111	10	0.0006812	0.0978756	0
	41	76	79.44915	143.7614	-0.2344758	1	143.7616	-0.0934497	-1.903195E-006	0.0001104	10	0.000716	0.1029065	0
	42	77	62.91946	143.8007	-0.2385667	1	143.8009	-0.0950541	-1.887662E-006	0.0001105	10	0.0006956	0.1000102	0
	43	79	49.86702	143.8345	-0.2234601	1	143.8346	-0.0890142	-1.884035E-006	0.0001118	10	0.0006955	0.1000289	0
	44	81	38.42213	143.8674	-0.2069526	1	143.8675	-0.0824197	-1.843241E-006	0.0001136	10	0.0006951	0.1000031	0
	45	83	31.25	143.8956	-0.2093495	1	143.8958	-0.0833579	-1.799911E-006	0.000112	10	0.000695	0.1000006	0
	46	84	24.93351	143.9158	-0.2008066	1	143.916	-0.0799451	-1.77394E-006	0.000112	10	0.0006949	0.0999983	0
	47	86	20.03205	143.9357	-0.190408	1	143.9359	-0.0757947	-1.830806E-006	0.0001089	10	0.0006948	0.1000003	0
	48	88	15.625	143.963	-0.1889619	1	143.9631	-0.0752049	-1.714793E-006	0.0001124	10	0.0006946	0.0999999	0
	49	90	12.46675	143.9837	-0.1833306	1	143.9838	-0.0729532	-1.679684E-006	0.0001125	10	0.0006945	0.0999999	0
	50	92	9.9734	143.9996	-0.1814443	1	143.9997	-0.0721946	-1.69636E-006	0.0001135	10	0.0006944	0.0999996	0
	51	94	7.971939	144.0146	-0.1758157	1	144.0147	-0.0699477	-1.745248E-006	0.0001118	10	0.0006944	0.0999995	0
	52	97	6.351626	144.0291	-0.1765018	1	144.0292	-0.0702136	-1.787713E-006	0.0001115	10	0.0006943	0.1	0
	53	99	5.013369	144.041	-0.1739611	1	144.0411	-0.0691972	-1.849314E-006	0.0001105	10	0.0006942	0.1000001	0
	54	102	3.985969	144.0504	-0.1739303	1	144.0505	-0.0691804	-1.839554E-006	0.0001123	10	0.0006942	0.0999996	0
	55	105	3.175813	144.0641	-0.1738643	1	144.0642	-0.0691476	-1.789689E-006	0.0001124	10	0.0006941	0.1	0
	56	108	2.516103	144.0648	-0.1565821	1	144.0649	-0.062274	-1.723574E-006	0.0001147	10	0.0006687	0.0964902	0
	57	112	1.99553	144.0624	-0.157077	1	144.0625	-0.0624719	-1.763189E-006	0.0001149	10	0.000708	0.1020733	0
	58	116	1.587906	144.0609	-0.1641439	1	144.0609	-0.0652831	-1.79393E-006	0.0001153	10	0.0006998	0.1008557	0
	59	121	1.258052	144.0588	-0.1632857	1	144.0589	-0.0649428	-1.748627E-006	0.0001154	10	0.0006966	0.1003666	0
	60	127	0.997765	144.0599	-0.1650475	1	144.06	-0.065643	-1.766793E-006	0.0001161	10	0.0006951	0.1001541	0
	61	133	0.7927448	144.0589	-0.1632032	1	144.059	-0.0649099	-1.835768E-006	0.0001162	10	0.0006946	0.1000678	0
	62	140	0.6290258	144.0724	-0.1585544	1	144.0725	-0.0630551	-1.853468E-006	0.0001151	10	0.0006943	0.1000322	0
	63	149	0.4988825	144.0869	-0.1557719	1	144.087	-0.0619423	-1.775815E-006	0.0001159	10	0.0006941	0.1000154	0
	64	159	0.3985969	144.1255	-0.1493047	1	144.1256	-0.0593547	-1.600036E-006	0.0001151	10	0.0006939	0.1000081	0
