EXPLAIN
TAG	EISPOT
TITLE	LABEL	Potentiostatic EIS	Test Identifier
DATE	LABEL	2025/12/24	Date
TIME	LABEL	2:31:53	Time
NOTES	NOTES	1	Notes...
	
PSTAT	PSTAT	IFC1000-11123	Potentiostat
VDC	POTEN	0.00000E+000	T	DC Voltage (V)
FREQINIT	QUANT	1.00000E+006	Initial Freq. (Hz)
FREQFINAL	QUANT	5.00000E-001	Final Freq. (Hz)
PTSPERDEC	QUANT	1.00000E+001	Points/decade
VAC	QUANT	1.00000E+002	AC Voltage (mV rms)
AREA	QUANT	7.85000E-001	Sample Area (cm^2)
SPEED	SELECTOR	1	Optimize for:
DRIFTCOR	SELECTOR	0	Drift Correction
THD	SELECTOR	0	THD
ZGUESS	QUANT	1.00000E+002	Estimated Z (ohms)
EOC	QUANT	-5.736486E-006	Open Circuit (V)
SEQUENCER	TOGGLE	TRUE	Run as Sequence
PSTATMODEL	IQUANT	48	Pstat Model
PSTATSECTION	LABEL	IFC1000-11123	Pstat Section
PSTATSERIALNO	LABEL	11123	Pstat Serial Number
CTRLMODE	IQUANT	1	Control Mode
ELECTROMETER	IQUANT	0	RE=0 or CS=1
IESTAB	IQUANT	0	I/E Stability
CASPEED	IQUANT	3	Control Amp Speed
CONVENTION	IQUANT	1	Current Convention
ICHRANGE	IQUANT	2	Ich Range
ICHRANGEMODE	TOGGLE	F	Ich Auto Range
ICHOFFSETENABLE	TOGGLE	T	Ich Offset Enable
ICHOFFSET	QUANT	0	Ich Offset (V)
ICHFILTER	IQUANT	4	Ich Filter
VCHRANGE	IQUANT	2	Vch Range
VCHRANGEMODE	TOGGLE	F	Vch Auto Range
VCHOFFSETENABLE	TOGGLE	T	Vch Offset Enable
VCHOFFSET	QUANT	0	Vch Offset (V)
VCHFILTER	IQUANT	4	Vch Filter
IERANGELOWERLIMIT	IQUANT	4	I/E Range Lower Limit
IERANGEMODE	TOGGLE	F	I/E AutoRange
IERANGE	IQUANT	11	I/E Range
ACHSELECT	IQUANT	0	Ach Select
ACHRANGE	IQUANT	2	Ach Range
ACHOFFSETENABLE	TOGGLE	F	Ach Offset Enable
ACHOFFSET	QUANT	0	Ach Offset (V)
ACHFILTER	IQUANT	1	Ach Filter
SENSECABLEID	IQUANT	14	Sense Cable ID
PWRCABLEID	IQUANT	14	Power Cable ID
DCCALDATE	LABEL	5/23/2025	DC Calibration Date
ACCALDATE	LABEL	4/29/2023	AC Calibration Date
FRAMEWORKVERSION	LABEL	7.10.0	Framework Version
INSTRUMENTVERSION	LABEL	4.72	Instrument Version
COMMVERSION	LABEL	3.10	Communications Version
CPUPLDVERSION	LABEL	1.10	CPU PLD Version
CTRLPLDVERSION	LABEL	0.00	CTRL PLD Version
PSTATPLDVERSION	LABEL	0.00	PSTAT PLD Version
ZCURVE	TABLE
	Pt	Time	Freq	Zreal	Zimag	Zsig	Zmod	Zphz	Idc	Vdc	IERange	Imod	Vmod	Temp
	#	s	Hz	ohm	ohm	V	ohm	°	A	V	#	A	V	°C
	0	3	1000020	122.8043	-3.499921	1	122.8541	-1.632488	-1.217256E-005	0.0002614	10	0.000848	0.1000276	0
	1	5	794355.5	123.9869	-4.587944	1	124.0718	-2.119175	-1.192179E-005	0.0002645	10	0.0012509	0.1505441	0
	2	7	630996.1	125.2557	-5.503656	1	125.3766	-2.515922	-1.231859E-005	0.0002637	10	0.0011101	0.1360154	0
	3	9	501269.5	126.5878	-6.30985	1	126.7449	-2.853584	-1.265214E-005	0.0002603	10	0.0010279	0.1279919	0
	4	11	398144.5	127.9756	-6.989421	1	128.1664	-3.126117	-1.28221E-005	0.0002501	10	0.0009749	0.1232215	0
	5	12	316230.5	129.4086	-7.524869	1	129.6272	-3.327895	-1.297923E-005	0.0002371	10	0.000927	0.1188143	0
	6	14	251191.4	130.8828	-7.955497	1	131.1244	-3.47835	-1.317304E-005	0.0002317	10	0.0008826	0.1146634	0
	7	16	199628.9	132.3933	-8.242324	1	132.6496	-3.562429	-1.321498E-005	0.0002159	10	0.0008449	0.11123	0
	8	18	158496.1	133.9542	-8.431481	1	134.2193	-3.601619	-1.317244E-005	0.0002277	10	0.0008115	0.1082571	0
	9	20	125918	135.5019	-8.416195	1	135.763	-3.554147	-1.332889E-005	0.0002237	10	0.0007817	0.105623	0
	10	21	100019.5	137.0483	-8.286197	1	137.2986	-3.459999	-2.038645E-006	0.0001015	10	0.0007385	0.1009828	0
	11	23	79511.72	138.4883	-8.035726	1	138.7212	-3.32084	-2.037051E-006	0.0000959	10	0.0007531	0.1041998	0
	12	25	63105.47	139.8934	-7.63423	1	140.1015	-3.123634	-2.094702E-006	9.443192E-005	10	0.0007311	0.1022521	0
	13	27	50214.84	141.1625	-7.113805	1	141.3417	-2.884948	-2.272876E-006	9.31028E-005	10	0.0007167	0.1011936	0
	14	28	39902.34	142.2902	-6.499948	1	142.4386	-2.615505	-2.151049E-006	9.445369E-005	10	0.0007072	0.1006609	0
	15	30	31699.22	143.2595	-5.829751	1	143.378	-2.330289	-2.054835E-006	9.050546E-005	10	0.0007004	0.1003796	0
	16	32	25136.72	144.0861	-5.136869	1	144.1777	-2.041809	-2.099397E-006	9.113457E-005	10	0.0006953	0.1002207	0
	17	34	19980.47	144.7414	-4.463779	1	144.8102	-1.766424	-2.107961E-006	9.152654E-005	10	0.0006915	0.1001219	0
	18	35	15878.91	145.2687	-3.83093	1	145.3192	-1.510616	-2.097546E-006	9.018643E-005	10	0.0006887	0.1000674	0
	19	37	12597.66	145.6786	-3.251915	1	145.7149	-1.278775	-2.100363E-006	9.045936E-005	10	0.0006866	0.1000451	0
	20	39	10019.53	145.9956	-2.740993	1	146.0213	-1.075573	-2.08738E-006	8.995261E-005	10	0.0006849	0.1000067	0
	21	41	7928.241	146.244	-2.289287	1	146.2619	-0.8968282	-2.275674E-007	0.0001483	10	0.0006839	0.1000202	0
	22	42	6307.871	146.4283	-1.919809	1	146.4409	-0.7511569	-2.305851E-007	0.0001455	10	0.0006829	0.099999	0
	23	44	5034.722	146.5685	-1.615296	1	146.5774	-0.6314175	-1.901508E-006	0.0001212	10	0.0006638	0.0970614	0
	24	46	3993.056	146.6833	-1.348977	1	146.6895	-0.5269073	-2.016194E-006	0.0001208	10	0.0006947	0.1017647	0
	25	48	3144.055	146.7806	-1.126824	1	146.7849	-0.4398467	-1.952543E-006	0.0001205	10	0.0006869	0.1007414	0
	26	50	2519.531	146.8578	-0.957763	1	146.8609	-0.3736607	-1.916315E-006	0.00012	10	0.0006831	0.1002728	0
	27	51	2000.762	146.9253	-0.8182006	1	146.9276	-0.3190665	-1.944328E-006	0.0001203	10	0.0006816	0.1001131	0
	28	53	1580.669	146.9813	-0.7046158	1	146.983	-0.274669	-1.926388E-006	0.0001199	10	0.0006809	0.1000664	0
	29	55	1253.634	147.0283	-0.6172173	1	147.0296	-0.2405233	-1.896358E-006	0.0001196	10	0.0006804	0.1000202	0
	30	57	1000.702	147.0741	-0.5513057	1	147.0751	-0.2147716	-1.876292E-006	0.0001213	10	0.0006799	0.0999898	0
	31	58	790.0281	147.1318	-0.4980722	1	147.1326	-0.1939576	-1.799106E-006	0.0001213	10	0.0006796	0.0999828	0
	32	60	628.811	147.1852	-0.4619959	1	147.1859	-0.1798437	-1.748375E-006	0.0001185	10	0.0006795	0.1000029	0
	33	62	502.2321	147.2465	-0.437147	1	147.2471	-0.1700998	-1.718325E-006	0.000117	10	0.0006526	0.0954424	0
	34	63	400.1524	147.2957	-0.4087838	1	147.2963	-0.1590102	-1.6477E-006	0.0001185	10	0.0007	0.102638	0
	35	65	315.5048	147.3479	-0.3859211	1	147.3484	-0.1500639	-1.629386E-006	0.0001173	10	0.0006882	0.1011024	0
	36	67	252.0161	147.3976	-0.3676766	1	147.3981	-0.1429214	-1.708797E-006	0.0001132	10	0.0006824	0.1003976	0
	37	68	200.3205	147.4481	-0.3536251	1	147.4486	-0.1374123	-1.593813E-006	0.0001149	10	0.0006792	0.1000239	0
	38	70	158.0056	147.4934	-0.340134	1	147.4938	-0.1321293	-1.623392E-006	0.0001137	10	0.0006763	0.0996751	0
	39	72	125.558	147.5299	-0.3266799	1	147.5303	-0.1268715	-1.643095E-006	0.0001178	10	0.0006723	0.0991338	0
	40	74	99.734	147.5767	-0.3144743	1	147.577	-0.1220926	-1.604231E-006	0.0001146	10	0.0006633	0.097864	0
	41	75	79.44915	147.6216	-0.2851783	1	147.6218	-0.110685	-1.67747E-006	0.0001142	10	0.0006971	0.1028831	0
	42	77	62.91946	147.6562	-0.2842911	1	147.6565	-0.1103148	-1.635711E-006	0.0001148	10	0.0006774	0.1000089	0
	43	79	49.86702	147.6873	-0.2703143	1	147.6876	-0.1048692	-1.644153E-006	0.0001152	10	0.0006774	0.1000297	0
	44	81	38.42213	147.7256	-0.24641	1	147.7258	-0.0955707	-1.705732E-006	0.0001169	10	0.000677	0.1000025	0
	45	82	31.25	147.7514	-0.2456139	1	147.7516	-0.0952453	-1.756027E-006	0.0001157	10	0.0006768	0.1000015	0
	46	84	24.93351	147.7758	-0.2303061	1	147.776	-0.0892944	-1.74535E-006	0.0001158	10	0.0006767	0.099999	0
	47	86	20.03205	147.8041	-0.2208345	1	147.8043	-0.0856057	-1.801334E-006	0.0001133	10	0.0006766	0.0999998	0
	48	88	15.625	147.8294	-0.2117906	1	147.8295	-0.0820858	-1.813354E-006	0.0001155	10	0.0006765	0.0999998	0
	49	90	12.46675	147.8534	-0.2021265	1	147.8535	-0.0783275	-1.806641E-006	0.0001155	10	0.0006763	0.0999998	0
	50	92	9.9734	147.8696	-0.1963449	1	147.8697	-0.0760787	-1.752541E-006	0.0001134	10	0.0006763	0.1	0
	51	94	7.971939	147.88	-0.1907245	1	147.8801	-0.0738958	-1.828826E-006	0.000114	10	0.0006762	0.0999989	0
	52	96	6.351626	147.885	-0.182927	1	147.8851	-0.0708722	-1.840517E-006	0.0001138	10	0.0006762	0.1000001	0
	53	99	5.013369	147.8883	-0.1777084	1	147.8884	-0.0688489	-1.843722E-006	0.0001128	10	0.0006762	0.0999999	0
	54	102	3.985969	147.8857	-0.178313	1	147.8858	-0.0690843	-1.841702E-006	0.0001147	10	0.0006762	0.0999998	0
	55	104	3.175813	147.8834	-0.174522	1	147.8835	-0.0676166	-1.899006E-006	0.0001137	10	0.0006762	0.1	0
	56	108	2.516103	147.8741	-0.1524506	1	147.8742	-0.059069	-1.845768E-006	0.0001151	10	0.0006515	0.0964879	0
	57	112	1.99553	147.8559	-0.1495188	1	147.856	-0.0579401	-1.864767E-006	0.000116	10	0.0006898	0.1020726	0
	58	116	1.587906	147.8722	-0.1563729	1	147.8722	-0.0605895	-1.821301E-006	0.0001165	10	0.0006818	0.1008566	0
	59	121	1.258052	147.8941	-0.1559078	1	147.8941	-0.0604004	-1.566093E-006	0.0001169	10	0.0006785	0.1003665	0
	60	127	0.997765	147.9136	-0.1570598	1	147.9137	-0.0608386	-1.196865E-006	0.0001163	10	0.000677	0.100155	0
	61	133	0.7927448	147.9294	-0.1545929	1	147.9294	-0.0598767	-1.169448E-006	0.000117	10	0.0006764	0.1000678	0
	62	140	0.6290258	147.9663	-0.1514208	1	147.9664	-0.0586334	-1.210483E-006	0.0001162	10	0.000676	0.1000316	0
	63	148	0.4988825	148.0043	-0.1476402	1	148.0044	-0.0571548	-1.319032E-006	0.000116	10	0.0006757	0.1000158	0
	64	158	0.3985969	147.9961	-0.1410345	1	147.9961	-0.0546006	-1.354176E-006	0.0001156	10	0.0006757	0.1000082	0
