EXPLAIN
TAG	EISPOT
TITLE	LABEL	Potentiostatic EIS	Test Identifier
DATE	LABEL	2025/12/24	Date
TIME	LABEL	2:12:59	Time
NOTES	NOTES	1	Notes...
	
PSTAT	PSTAT	IFC1000-11123	Potentiostat
VDC	POTEN	0.00000E+000	T	DC Voltage (V)
FREQINIT	QUANT	1.00000E+006	Initial Freq. (Hz)
FREQFINAL	QUANT	5.00000E-001	Final Freq. (Hz)
PTSPERDEC	QUANT	1.00000E+001	Points/decade
VAC	QUANT	1.00000E+002	AC Voltage (mV rms)
AREA	QUANT	7.85000E-001	Sample Area (cm^2)
SPEED	SELECTOR	1	Optimize for:
DRIFTCOR	SELECTOR	0	Drift Correction
THD	SELECTOR	0	THD
ZGUESS	QUANT	1.00000E+002	Estimated Z (ohms)
EOC	QUANT	-6.171914E-006	Open Circuit (V)
SEQUENCER	TOGGLE	TRUE	Run as Sequence
PSTATMODEL	IQUANT	48	Pstat Model
PSTATSECTION	LABEL	IFC1000-11123	Pstat Section
PSTATSERIALNO	LABEL	11123	Pstat Serial Number
CTRLMODE	IQUANT	1	Control Mode
ELECTROMETER	IQUANT	0	RE=0 or CS=1
IESTAB	IQUANT	0	I/E Stability
CASPEED	IQUANT	3	Control Amp Speed
CONVENTION	IQUANT	1	Current Convention
ICHRANGE	IQUANT	2	Ich Range
ICHRANGEMODE	TOGGLE	F	Ich Auto Range
ICHOFFSETENABLE	TOGGLE	T	Ich Offset Enable
ICHOFFSET	QUANT	0	Ich Offset (V)
ICHFILTER	IQUANT	4	Ich Filter
VCHRANGE	IQUANT	2	Vch Range
VCHRANGEMODE	TOGGLE	F	Vch Auto Range
VCHOFFSETENABLE	TOGGLE	T	Vch Offset Enable
VCHOFFSET	QUANT	0	Vch Offset (V)
VCHFILTER	IQUANT	4	Vch Filter
IERANGELOWERLIMIT	IQUANT	4	I/E Range Lower Limit
IERANGEMODE	TOGGLE	F	I/E AutoRange
IERANGE	IQUANT	11	I/E Range
ACHSELECT	IQUANT	0	Ach Select
ACHRANGE	IQUANT	2	Ach Range
ACHOFFSETENABLE	TOGGLE	F	Ach Offset Enable
ACHOFFSET	QUANT	0	Ach Offset (V)
ACHFILTER	IQUANT	1	Ach Filter
SENSECABLEID	IQUANT	14	Sense Cable ID
PWRCABLEID	IQUANT	14	Power Cable ID
DCCALDATE	LABEL	5/23/2025	DC Calibration Date
ACCALDATE	LABEL	4/29/2023	AC Calibration Date
FRAMEWORKVERSION	LABEL	7.10.0	Framework Version
INSTRUMENTVERSION	LABEL	4.72	Instrument Version
COMMVERSION	LABEL	3.10	Communications Version
CPUPLDVERSION	LABEL	1.10	CPU PLD Version
CTRLPLDVERSION	LABEL	0.00	CTRL PLD Version
PSTATPLDVERSION	LABEL	0.00	PSTAT PLD Version
ZCURVE	TABLE
	Pt	Time	Freq	Zreal	Zimag	Zsig	Zmod	Zphz	Idc	Vdc	IERange	Imod	Vmod	Temp
	#	s	Hz	ohm	ohm	V	ohm	°	A	V	#	A	V	°C
	0	4	1000020	122.6074	-3.438853	1	122.6556	-1.606592	-1.251442E-005	0.000266	10	0.0008493	0.1000213	0
	1	5	794355.5	123.7644	-4.524096	1	123.8471	-2.093463	-1.220326E-005	0.0002682	10	0.0012534	0.1505739	0
	2	7	630996.1	125.0095	-5.45328	1	125.1284	-2.497826	-1.266953E-005	0.0002682	10	0.001112	0.1359802	0
	3	9	501269.5	126.318	-6.259019	1	126.4729	-2.83667	-1.286086E-005	0.00025	10	0.0010321	0.1282464	0
	4	11	398144.5	127.6748	-6.941879	1	127.8633	-3.112198	-1.297212E-005	0.0002558	10	0.0009742	0.1228401	0
	5	13	316230.5	129.0897	-7.483593	1	129.3064	-3.31784	-1.307723E-005	0.0002367	10	0.0009291	0.1187862	0
	6	14	251191.4	130.5449	-7.894917	1	130.7834	-3.46084	-1.318828E-005	0.000236	10	0.0008883	0.1150979	0
	7	16	199628.9	132.0446	-8.204275	1	132.2992	-3.555365	-1.345896E-005	0.0002143	10	0.0008432	0.110708	0
	8	18	158496.1	133.5888	-8.346142	1	133.8493	-3.574985	-1.335974E-005	0.0002273	10	0.0008163	0.1085944	0
	9	20	125918	135.1117	-8.338271	1	135.3688	-3.531467	-1.341043E-005	0.0002204	10	0.0007837	0.1055838	0
	10	21	100019.5	136.6376	-8.215109	1	136.8844	-3.440671	-2.197854E-006	0.0001019	10	0.0007409	0.1010043	0
	11	23	79511.72	138.0619	-7.96145	1	138.2913	-3.300351	-2.203517E-006	0.0000981	10	0.0007556	0.1042238	0
	12	25	63105.47	139.4497	-7.558862	1	139.6544	-3.102677	-2.162218E-006	0.0000956	10	0.0007332	0.1022177	0
	13	27	50214.84	140.7095	-7.040082	1	140.8855	-2.864277	-2.24481E-006	9.250708E-005	10	0.0007193	0.1012222	0
	14	29	39902.34	141.8379	-6.429291	1	141.9836	-2.595351	-2.145599E-006	9.217957E-005	10	0.0007094	0.1006578	0
	15	30	31699.22	142.8004	-5.76067	1	142.9166	-2.310099	-2.07851E-006	9.107823E-005	10	0.0007027	0.1003796	0
	16	32	25136.72	143.6136	-5.071978	1	143.7032	-2.022664	-2.088097E-006	9.171152E-005	10	0.0006974	0.1001882	0
	17	34	19980.47	144.2618	-4.404702	1	144.3291	-1.748851	-2.14091E-006	9.048986E-005	10	0.0006938	0.1001217	0
	18	36	15878.91	144.7833	-3.778334	1	144.8326	-1.494879	-2.080701E-006	9.036346E-005	10	0.000691	0.1000673	0
	19	37	12597.66	145.1812	-3.200663	1	145.2165	-1.262937	-2.081637E-006	8.993316E-005	10	0.000689	0.1000457	0
	20	39	10019.53	145.474	-2.704146	1	145.4991	-1.064921	-2.078909E-006	9.146717E-005	10	0.0006876	0.1000403	0
	21	41	7928.241	145.6976	-2.254573	1	145.7151	-0.8865427	-2.482461E-007	0.0001445	10	0.0006864	0.100021	0
	22	43	6307.871	145.8629	-1.888351	1	145.8751	-0.7417136	-2.619381E-007	0.0001468	10	0.0006855	0.0999967	0
	23	44	5034.722	145.9855	-1.588456	1	145.9941	-0.6234061	-1.827736E-006	0.0001194	10	0.0006665	0.0970602	0
	24	46	3993.056	146.082	-1.328225	1	146.088	-0.5209376	-1.816891E-006	0.0001204	10	0.0006976	0.1017638	0
	25	48	3144.055	146.1574	-1.106466	1	146.1616	-0.4337422	-1.738751E-006	0.0001186	10	0.0006898	0.1007423	0
	26	50	2519.531	146.2151	-0.942652	1	146.2182	-0.369382	-1.675811E-006	0.0001176	10	0.0006861	0.100273	0
	27	51	2000.762	146.2653	-0.8056299	1	146.2675	-0.3155822	-1.642642E-006	0.0001178	10	0.0006847	0.1001129	0
	28	53	1580.669	146.3089	-0.6932865	1	146.3105	-0.2714948	-1.596777E-006	0.0001181	10	0.0006839	0.1000364	0
	29	55	1253.634	146.3427	-0.6084691	1	146.3439	-0.2382252	-1.589959E-006	0.000117	10	0.0006835	0.1000188	0
	30	57	1000.702	146.3668	-0.5428126	1	146.3678	-0.2124848	-1.552239E-006	0.0001175	10	0.0006834	0.1000213	0
	31	58	790.0281	146.3985	-0.4922851	1	146.3993	-0.1926642	-1.583722E-006	0.0001186	10	0.000683	0.0999826	0
	32	60	628.811	146.428	-0.4524094	1	146.4287	-0.1770227	-1.521722E-006	0.0001172	10	0.000683	0.1000015	0
	33	62	502.2321	146.4691	-0.4297352	1	146.4698	-0.1681033	-1.560511E-006	0.0001156	10	0.0006561	0.0954423	0
	34	63	400.1524	146.5019	-0.4008142	1	146.5025	-0.1567549	-1.592526E-006	0.0001144	10	0.0007036	0.1026062	0
	35	65	315.5048	146.5398	-0.380465	1	146.5403	-0.1487581	-1.5907E-006	0.0001148	10	0.0006922	0.1011295	0
	36	67	252.0161	146.5801	-0.3648801	1	146.5806	-0.1426254	-1.648676E-006	0.0001136	10	0.0006863	0.1003972	0
	37	69	200.3205	146.6219	-0.349804	1	146.6223	-0.1366935	-1.724045E-006	0.0001149	10	0.000683	0.100022	0
	38	70	158.0056	146.6672	-0.3350271	1	146.6676	-0.1308786	-1.798134E-006	0.0001133	10	0.0006801	0.0996739	0
	39	72	125.558	146.71	-0.3227699	1	146.7103	-0.1260536	-1.779026E-006	0.0001163	10	0.000676	0.0991329	0
	40	74	99.734	146.76	-0.3097264	1	146.7603	-0.1209185	-1.820318E-006	0.0001148	10	0.000667	0.097863	0
	41	75	79.44915	146.81	-0.2782764	1	146.8103	-0.1086032	-1.924883E-006	0.0001138	10	0.0007009	0.102884	0
	42	77	62.91946	146.8643	-0.2802611	1	146.8646	-0.1093374	-1.93782E-006	0.000111	10	0.0006811	0.1000121	0
	43	79	49.86702	146.9175	-0.2627143	1	146.9177	-0.1024548	-1.882097E-006	0.0001138	10	0.0006809	0.1000289	0
	44	81	38.42213	146.9625	-0.2423197	1	146.9627	-0.0944723	-1.933928E-006	0.000113	10	0.0006805	0.1000026	0
	45	83	31.25	147.0018	-0.2417876	1	147.002	-0.0942396	-1.851985E-006	0.0001139	10	0.0006803	0.1000016	0
	46	84	24.93351	147.0341	-0.2277796	1	147.0343	-0.0887603	-1.877125E-006	0.0001131	10	0.0006801	0.0999978	0
	47	86	20.03205	147.0648	-0.2167527	1	147.0649	-0.0844458	-1.921678E-006	0.0001105	10	0.00068	0.1000014	0
	48	88	15.625	147.0938	-0.2053441	1	147.094	-0.0799853	-1.923165E-006	0.0001131	10	0.0006798	0.0999985	0
	49	90	12.46675	147.119	-0.2031778	1	147.1191	-0.0791279	-1.924838E-006	0.0001138	10	0.0006797	0.1000007	0
	50	92	9.9734	147.1413	-0.1963791	1	147.1414	-0.0764686	-1.987247E-006	0.0001135	10	0.0006796	0.0999994	0
	51	94	7.971939	147.1562	-0.18809	1	147.1563	-0.0732335	-1.947461E-006	0.0001133	10	0.0006795	0.099999	0
	52	97	6.351626	147.1708	-0.1835752	1	147.1709	-0.0714686	-1.977594E-006	0.0001137	10	0.0006795	0.1000006	0
	53	99	5.013369	147.1758	-0.1772941	1	147.1759	-0.0690208	-1.946874E-006	0.0001124	10	0.0006795	0.1000001	0
	54	102	3.985969	147.1755	-0.1740367	1	147.1756	-0.0677529	-1.853872E-006	0.0001133	10	0.0006795	0.0999994	0
	55	105	3.175813	147.1689	-0.1732153	1	147.1691	-0.0674361	-1.853756E-006	0.0001144	10	0.0006795	0.0999995	0
	56	108	2.516103	147.1758	-0.1526955	1	147.1759	-0.0594446	-1.790679E-006	0.0001157	10	0.0006546	0.0964876	0
	57	112	1.99553	147.1619	-0.150897	1	147.162	-0.05875	-1.796948E-006	0.0001177	10	0.0006931	0.1020731	0
	58	116	1.587906	147.1549	-0.1553998	1	147.155	-0.060506	-1.701264E-006	0.0001161	10	0.0006851	0.1008566	0
	59	121	1.258052	147.1418	-0.1578181	1	147.1418	-0.061453	-1.612467E-006	0.0001157	10	0.000682	0.1003664	0
	60	127	0.997765	147.1517	-0.1585432	1	147.1518	-0.0617312	-1.626676E-006	0.0001164	10	0.0006806	0.1001555	0
	61	133	0.7927448	147.1767	-0.1550494	1	147.1767	-0.0603606	-1.523953E-006	0.0001158	10	0.0006799	0.1000676	0
	62	140	0.6290258	147.2001	-0.1511834	1	147.2002	-0.0588462	-1.584429E-006	0.0001149	10	0.0006795	0.1000313	0
	63	149	0.4988825	147.2149	-0.1457725	1	147.215	-0.0567344	-1.587632E-006	0.0001151	10	0.0006794	0.1000162	0
	64	159	0.3985969	147.2113	-0.1407907	1	147.2113	-0.0547968	-1.544275E-006	0.0001159	10	0.0006793	0.1000086	0
