EXPLAIN
TAG	EISPOT
TITLE	LABEL	Potentiostatic EIS	Test Identifier
DATE	LABEL	2025/12/24	Date
TIME	LABEL	3:38:01	Time
NOTES	NOTES	1	Notes...
	
PSTAT	PSTAT	IFC1000-11123	Potentiostat
VDC	POTEN	0.00000E+000	T	DC Voltage (V)
FREQINIT	QUANT	1.00000E+006	Initial Freq. (Hz)
FREQFINAL	QUANT	5.00000E-001	Final Freq. (Hz)
PTSPERDEC	QUANT	1.00000E+001	Points/decade
VAC	QUANT	1.00000E+002	AC Voltage (mV rms)
AREA	QUANT	7.85000E-001	Sample Area (cm^2)
SPEED	SELECTOR	1	Optimize for:
DRIFTCOR	SELECTOR	0	Drift Correction
THD	SELECTOR	0	THD
ZGUESS	QUANT	1.00000E+002	Estimated Z (ohms)
EOC	QUANT	-7.828738E-006	Open Circuit (V)
SEQUENCER	TOGGLE	TRUE	Run as Sequence
PSTATMODEL	IQUANT	48	Pstat Model
PSTATSECTION	LABEL	IFC1000-11123	Pstat Section
PSTATSERIALNO	LABEL	11123	Pstat Serial Number
CTRLMODE	IQUANT	1	Control Mode
ELECTROMETER	IQUANT	0	RE=0 or CS=1
IESTAB	IQUANT	0	I/E Stability
CASPEED	IQUANT	3	Control Amp Speed
CONVENTION	IQUANT	1	Current Convention
ICHRANGE	IQUANT	2	Ich Range
ICHRANGEMODE	TOGGLE	F	Ich Auto Range
ICHOFFSETENABLE	TOGGLE	T	Ich Offset Enable
ICHOFFSET	QUANT	0	Ich Offset (V)
ICHFILTER	IQUANT	4	Ich Filter
VCHRANGE	IQUANT	2	Vch Range
VCHRANGEMODE	TOGGLE	F	Vch Auto Range
VCHOFFSETENABLE	TOGGLE	T	Vch Offset Enable
VCHOFFSET	QUANT	0	Vch Offset (V)
VCHFILTER	IQUANT	4	Vch Filter
IERANGELOWERLIMIT	IQUANT	4	I/E Range Lower Limit
IERANGEMODE	TOGGLE	F	I/E AutoRange
IERANGE	IQUANT	11	I/E Range
ACHSELECT	IQUANT	0	Ach Select
ACHRANGE	IQUANT	2	Ach Range
ACHOFFSETENABLE	TOGGLE	F	Ach Offset Enable
ACHOFFSET	QUANT	0	Ach Offset (V)
ACHFILTER	IQUANT	1	Ach Filter
SENSECABLEID	IQUANT	14	Sense Cable ID
PWRCABLEID	IQUANT	14	Power Cable ID
DCCALDATE	LABEL	5/23/2025	DC Calibration Date
ACCALDATE	LABEL	4/29/2023	AC Calibration Date
FRAMEWORKVERSION	LABEL	7.10.0	Framework Version
INSTRUMENTVERSION	LABEL	4.72	Instrument Version
COMMVERSION	LABEL	3.10	Communications Version
CPUPLDVERSION	LABEL	1.10	CPU PLD Version
CTRLPLDVERSION	LABEL	0.00	CTRL PLD Version
PSTATPLDVERSION	LABEL	0.00	PSTAT PLD Version
ZCURVE	TABLE
	Pt	Time	Freq	Zreal	Zimag	Zsig	Zmod	Zphz	Idc	Vdc	IERange	Imod	Vmod	Temp
	#	s	Hz	ohm	ohm	V	ohm	°	A	V	#	A	V	°C
	0	4	1000020	123.027	-3.625616	1	123.0804	-1.688022	-1.268452E-005	0.0002542	10	0.0008452	0.0998797	0
	1	5	794355.5	124.2181	-4.711769	1	124.3074	-2.172269	-1.24551E-005	0.0002611	10	0.0012487	0.1505603	0
	2	7	630996.1	125.4931	-5.626668	1	125.6192	-2.567221	-1.273519E-005	0.0002622	10	0.0011082	0.1360403	0
	3	9	501269.5	126.8172	-6.415611	1	126.9793	-2.896093	-1.299959E-005	0.0002539	10	0.0010262	0.1280137	0
	4	11	398144.5	128.1901	-7.101417	1	128.3867	-3.170804	-1.322231E-005	0.0002432	10	0.0009707	0.1228921	0
	5	13	316230.5	129.6196	-7.631735	1	129.8441	-3.369567	-1.333868E-005	0.0002325	10	0.0009256	0.1188275	0
	6	14	251191.4	131.1045	-8.04932	1	131.3514	-3.513334	-1.332506E-005	0.0002281	10	0.0008847	0.1151292	0
	7	16	199628.9	132.6239	-8.334805	1	132.8855	-3.596049	-1.348722E-005	0.0002109	10	0.0008396	0.1107315	0
	8	18	158496.1	134.1734	-8.503491	1	134.4426	-3.626377	-1.339158E-005	0.0002258	10	0.0008124	0.1085582	0
	9	20	125918	135.7361	-8.531025	1	136.0039	-3.596314	-1.340263E-005	0.0002154	10	0.0007804	0.1056269	0
	10	21	100019.5	137.2927	-8.391078	1	137.5489	-3.497461	-2.314463E-006	0.0000998	10	0.0007372	0.1009848	0
	11	23	79511.72	138.7519	-8.148902	1	138.991	-3.361122	-2.290263E-006	0.000097	10	0.0007517	0.1042016	0
	12	25	63105.47	140.1836	-7.750221	1	140.3977	-3.164445	-2.237797E-006	0.0000959	10	0.0007296	0.1022555	0
	13	27	50214.84	141.4844	-7.243209	1	141.6696	-2.930665	-2.279097E-006	9.12E-005	10	0.0007151	0.1011971	0
	14	29	39902.34	142.6631	-6.630705	1	142.8171	-2.661083	-2.143777E-006	9.156956E-005	10	0.0007053	0.1006605	0
	15	30	31699.22	143.6602	-5.954609	1	143.7835	-2.373509	-2.102776E-006	9.003608E-005	10	0.0006982	0.1003484	0
	16	32	25136.72	144.5092	-5.24828	1	144.6045	-2.079952	-2.059433E-006	9.057749E-005	10	0.0006933	0.1002219	0
	17	34	19980.47	145.1938	-4.569832	1	145.2657	-1.802733	-2.168724E-006	9.046937E-005	10	0.0006894	0.1001228	0
	18	36	15878.91	145.7365	-3.928276	1	145.7894	-1.544014	-2.079606E-006	8.869103E-005	10	0.0006865	0.1000663	0
	19	37	12597.66	146.1685	-3.337209	1	146.2066	-1.307907	-2.071999E-006	8.821173E-005	10	0.0006843	0.1000459	0
	20	39	10019.53	146.4861	-2.817483	1	146.5132	-1.101879	-2.018669E-006	8.908249E-005	10	0.0006826	0.1000064	0
	21	41	7928.241	146.7426	-2.354553	1	146.7615	-0.9192582	-1.834273E-007	0.0001457	10	0.0006815	0.1000191	0
	22	43	6307.871	146.9193	-1.971005	1	146.9325	-0.7686089	-6.945876E-008	0.0001474	10	0.0006808	0.1000279	0
	23	44	5034.722	147.0584	-1.658405	1	147.0677	-0.646108	-1.562597E-006	0.0001184	10	0.0006616	0.0970596	0
	24	46	3993.056	147.1698	-1.387737	1	147.1764	-0.5402541	-1.618685E-006	0.0001201	10	0.0006924	0.1017626	0
	25	48	3144.055	147.259	-1.155154	1	147.2635	-0.4494399	-1.621548E-006	0.0001171	10	0.0006847	0.1007406	0
	26	50	2519.531	147.3234	-0.98382	1	147.3267	-0.3826131	-1.610411E-006	0.0001169	10	0.000681	0.1002724	0
	27	51	2000.762	147.3893	-0.8379463	1	147.3917	-0.3257377	-1.526397E-006	0.0001175	10	0.0006794	0.1001121	0
	28	53	1580.669	147.4523	-0.7219864	1	147.4541	-0.2805411	-1.542076E-006	0.0001163	10	0.0006785	0.1000356	0
	29	55	1253.634	147.5083	-0.6328911	1	147.5096	-0.2458287	-1.555714E-006	0.0001165	10	0.0006781	0.1000191	0
	30	57	1000.702	147.5625	-0.564454	1	147.5636	-0.219166	-1.579639E-006	0.0001159	10	0.0006779	0.1000188	0
	31	58	790.0281	147.6182	-0.5106971	1	147.619	-0.1982186	-1.559514E-006	0.0001177	10	0.0006773	0.0999822	0
	32	60	628.811	147.662	-0.4700095	1	147.6627	-0.1823724	-1.61437E-006	0.000118	10	0.0006772	0.0999997	0
	33	62	502.2321	147.7206	-0.4455577	1	147.7213	-0.1728161	-1.727738E-006	0.0001154	10	0.0006505	0.0954413	0
	34	63	400.1524	147.7622	-0.4162236	1	147.7628	-0.1613931	-1.681572E-006	0.0001147	10	0.0006978	0.1026347	0
	35	65	315.5048	147.8127	-0.3940116	1	147.8132	-0.1527281	-1.759748E-006	0.0001139	10	0.000686	0.1011001	0
	36	67	252.0161	147.8562	-0.3783874	1	147.8567	-0.1466286	-1.819075E-006	0.0001134	10	0.0006803	0.1003963	0
	37	69	200.3205	147.8963	-0.363324	1	147.8968	-0.1407533	-1.734374E-006	0.0001128	10	0.0006771	0.1000212	0
	38	70	158.0056	147.9382	-0.3498499	1	147.9386	-0.135495	-1.777284E-006	0.0001146	10	0.0006743	0.099674	0
	39	72	125.558	147.9794	-0.3352808	1	147.9798	-0.1298163	-1.765487E-006	0.0001165	10	0.0006702	0.0991314	0
	40	74	99.734	148.0248	-0.3215598	1	148.0251	-0.1244656	-1.845522E-006	0.0001137	10	0.0006613	0.0978624	0
	41	75	79.44915	148.0654	-0.2944641	1	148.0657	-0.1139464	-1.99362E-006	0.0001148	10	0.0006951	0.102896	0
	42	77	62.91946	148.1068	-0.2890594	1	148.107	-0.1118238	-1.965205E-006	0.000114	10	0.0006753	0.1000097	0
	43	79	49.86702	148.1431	-0.2717789	1	148.1434	-0.105113	-1.927666E-006	0.0001137	10	0.0006753	0.1000289	0
	44	81	38.42213	148.184	-0.2506832	1	148.1842	-0.0969273	-1.919907E-006	0.0001155	10	0.0006749	0.1000043	0
	45	83	31.25	148.2136	-0.2491518	1	148.2138	-0.0963159	-1.904664E-006	0.0001142	10	0.0006747	0.1000007	0
	46	84	24.93351	148.2408	-0.2361006	1	148.241	-0.0912539	-1.951357E-006	0.0001131	10	0.0006746	0.0999976	0
	47	86	20.03205	148.2672	-0.2231705	1	148.2673	-0.0862411	-1.988335E-006	0.0001123	10	0.0006745	0.1000012	0
	48	88	15.625	148.2928	-0.2146479	1	148.2929	-0.0829333	-1.949169E-006	0.0001148	10	0.0006743	0.0999991	0
	49	90	12.46675	148.3065	-0.2058628	1	148.3067	-0.0795317	-1.925131E-006	0.0001146	10	0.0006743	0.1000005	0
	50	92	9.9734	148.3194	-0.1969892	1	148.3195	-0.0760969	-1.936548E-006	0.0001133	10	0.0006742	0.0999999	0
	51	94	7.971939	148.3286	-0.1898426	1	148.3287	-0.0733316	-1.899696E-006	0.0001142	10	0.0006742	0.0999986	0
	52	97	6.351626	148.3352	-0.1850709	1	148.3353	-0.0714852	-1.949741E-006	0.0001142	10	0.0006741	0.1	0
	53	99	5.013369	148.3334	-0.1820747	1	148.3335	-0.0703288	-1.935652E-006	0.0001123	10	0.0006742	0.1000001	0
	54	102	3.985969	148.3345	-0.1764042	1	148.3346	-0.068138	-1.815336E-006	0.000114	10	0.0006742	0.0999999	0
	55	105	3.175813	148.329	-0.1725007	1	148.3291	-0.0666327	-1.639798E-006	0.0001135	10	0.0006742	0.0999998	0
	56	108	2.516103	148.3249	-0.1500203	1	148.325	-0.0579507	-1.580194E-006	0.000116	10	0.0006495	0.096487	0
	57	112	1.99553	148.297	-0.151024	1	148.297	-0.0583494	-1.575957E-006	0.0001152	10	0.0006878	0.102073	0
	58	116	1.587906	148.3118	-0.1555386	1	148.3119	-0.0600876	-1.625394E-006	0.0001154	10	0.0006798	0.1008567	0
	59	121	1.258052	148.3307	-0.1572732	1	148.3307	-0.06075	-1.636644E-006	0.0001149	10	0.0006765	0.100366	0
	60	127	0.997765	148.3509	-0.1562444	1	148.351	-0.0603444	-1.692136E-006	0.0001158	10	0.000675	0.1001553	0
	61	133	0.7927448	148.3612	-0.1531238	1	148.3613	-0.059135	-1.70011E-006	0.0001165	10	0.0006744	0.100068	0
	62	140	0.6290258	148.3758	-0.149764	1	148.3758	-0.0578318	-1.740444E-006	0.000115	10	0.0006742	0.1000321	0
	63	149	0.4988825	148.4079	-0.1457438	1	148.4079	-0.0562672	-1.701515E-006	0.0001156	10	0.0006739	0.1000152	0
	64	159	0.3985969	148.4308	-0.1396425	1	148.4308	-0.0539034	-1.37832E-006	0.0001157	10	0.0006738	0.1000085	0
