EXPLAIN
TAG	EISPOT
TITLE	LABEL	Potentiostatic EIS	Test Identifier
DATE	LABEL	2025/12/24	Date
TIME	LABEL	3:56:55	Time
NOTES	NOTES	1	Notes...
	
PSTAT	PSTAT	IFC1000-11123	Potentiostat
VDC	POTEN	0.00000E+000	T	DC Voltage (V)
FREQINIT	QUANT	1.00000E+006	Initial Freq. (Hz)
FREQFINAL	QUANT	5.00000E-001	Final Freq. (Hz)
PTSPERDEC	QUANT	1.00000E+001	Points/decade
VAC	QUANT	1.00000E+002	AC Voltage (mV rms)
AREA	QUANT	7.85000E-001	Sample Area (cm^2)
SPEED	SELECTOR	1	Optimize for:
DRIFTCOR	SELECTOR	0	Drift Correction
THD	SELECTOR	0	THD
ZGUESS	QUANT	1.00000E+002	Estimated Z (ohms)
EOC	QUANT	-5.672218E-006	Open Circuit (V)
SEQUENCER	TOGGLE	TRUE	Run as Sequence
PSTATMODEL	IQUANT	48	Pstat Model
PSTATSECTION	LABEL	IFC1000-11123	Pstat Section
PSTATSERIALNO	LABEL	11123	Pstat Serial Number
CTRLMODE	IQUANT	1	Control Mode
ELECTROMETER	IQUANT	0	RE=0 or CS=1
IESTAB	IQUANT	0	I/E Stability
CASPEED	IQUANT	3	Control Amp Speed
CONVENTION	IQUANT	1	Current Convention
ICHRANGE	IQUANT	2	Ich Range
ICHRANGEMODE	TOGGLE	F	Ich Auto Range
ICHOFFSETENABLE	TOGGLE	T	Ich Offset Enable
ICHOFFSET	QUANT	0	Ich Offset (V)
ICHFILTER	IQUANT	4	Ich Filter
VCHRANGE	IQUANT	2	Vch Range
VCHRANGEMODE	TOGGLE	F	Vch Auto Range
VCHOFFSETENABLE	TOGGLE	T	Vch Offset Enable
VCHOFFSET	QUANT	0	Vch Offset (V)
VCHFILTER	IQUANT	4	Vch Filter
IERANGELOWERLIMIT	IQUANT	4	I/E Range Lower Limit
IERANGEMODE	TOGGLE	F	I/E AutoRange
IERANGE	IQUANT	11	I/E Range
ACHSELECT	IQUANT	0	Ach Select
ACHRANGE	IQUANT	2	Ach Range
ACHOFFSETENABLE	TOGGLE	F	Ach Offset Enable
ACHOFFSET	QUANT	0	Ach Offset (V)
ACHFILTER	IQUANT	1	Ach Filter
SENSECABLEID	IQUANT	14	Sense Cable ID
PWRCABLEID	IQUANT	14	Power Cable ID
DCCALDATE	LABEL	5/23/2025	DC Calibration Date
ACCALDATE	LABEL	4/29/2023	AC Calibration Date
FRAMEWORKVERSION	LABEL	7.10.0	Framework Version
INSTRUMENTVERSION	LABEL	4.72	Instrument Version
COMMVERSION	LABEL	3.10	Communications Version
CPUPLDVERSION	LABEL	1.10	CPU PLD Version
CTRLPLDVERSION	LABEL	0.00	CTRL PLD Version
PSTATPLDVERSION	LABEL	0.00	PSTAT PLD Version
ZCURVE	TABLE
	Pt	Time	Freq	Zreal	Zimag	Zsig	Zmod	Zphz	Idc	Vdc	IERange	Imod	Vmod	Temp
	#	s	Hz	ohm	ohm	V	ohm	°	A	V	#	A	V	°C
	0	3	1000020	123.0831	-3.723926	1	123.1394	-1.732977	-1.280049E-005	0.0002569	10	0.0008449	0.0998945	0
	1	5	794355.5	124.3094	-4.798654	1	124.402	-2.210662	-1.247979E-005	0.0002653	10	0.0012481	0.1506031	0
	2	7	630996.1	125.6097	-5.703057	1	125.7391	-2.599615	-1.291744E-005	0.0002633	10	0.0011073	0.1360615	0
	3	9	501269.5	126.9575	-6.507774	1	127.1242	-2.934382	-1.305294E-005	0.0002533	10	0.0010252	0.1280357	0
	4	11	398144.5	128.3545	-7.164882	1	128.5543	-3.194994	-1.320945E-005	0.0002511	10	0.0009696	0.1229107	0
	5	12	316230.5	129.8052	-7.699289	1	130.0334	-3.394475	-1.338214E-005	0.0002388	10	0.0009244	0.118847	0
	6	14	251191.4	131.3052	-8.136703	1	131.5571	-3.545963	-1.357858E-005	0.0002304	10	0.0008799	0.1146933	0
	7	16	199628.9	132.8311	-8.403352	1	133.0966	-3.619905	-1.36982E-005	0.0002085	10	0.0008422	0.1112517	0
	8	18	158496.1	134.4054	-8.573786	1	134.6786	-3.64998	-1.378077E-005	0.0002251	10	0.0008095	0.1083514	0
	9	19	125918	135.9862	-8.579963	1	136.2566	-3.610255	-1.36019E-005	0.0002151	10	0.0007787	0.1056031	0
	10	21	100019.5	137.5549	-8.454417	1	137.8145	-3.517096	-2.353655E-006	0.0000961	10	0.0007358	0.1009916	0
	11	23	79511.72	139.0355	-8.212542	1	139.2778	-3.380416	-2.364543E-006	9.424551E-005	10	0.0007501	0.1042061	0
	12	25	63105.47	140.4818	-7.821347	1	140.6993	-3.186663	-2.401946E-006	9.165442E-005	10	0.000728	0.1022573	0
	13	27	50214.84	141.7927	-7.305995	1	141.9808	-2.949608	-2.395967E-006	9.08263E-005	10	0.0007133	0.1011675	0
	14	28	39902.34	142.9697	-6.692834	1	143.1263	-2.680228	-2.298166E-006	8.954998E-005	10	0.0007038	0.1006609	0
	15	30	31699.22	143.9954	-6.014572	1	144.121	-2.391809	-2.356914E-006	8.962135E-005	10	0.0006968	0.100382	0
	16	32	25136.72	144.859	-5.310265	1	144.9563	-2.099418	-2.37359E-006	9.167305E-005	10	0.0006916	0.1002215	0
	17	34	19980.47	145.556	-4.625203	1	145.6294	-1.820025	-2.302336E-006	8.858123E-005	10	0.0006876	0.100122	0
	18	35	15878.91	146.112	-3.976306	1	146.1661	-1.558868	-2.38277E-006	8.881648E-005	10	0.0006847	0.100067	0
	19	37	12597.66	146.5491	-3.376877	1	146.588	-1.320012	-2.321456E-006	8.967787E-005	10	0.0006826	0.1000466	0
	20	39	10019.53	146.8876	-2.854384	1	146.9154	-1.113256	-2.323795E-006	8.918879E-005	10	0.0006808	0.1000092	0
	21	41	7928.241	147.1437	-2.379298	1	147.1629	-0.9263862	-4.655622E-007	0.0001459	10	0.0006797	0.1000205	0
	22	42	6307.871	147.3309	-2.000154	1	147.3445	-0.7777957	-4.908165E-007	0.000145	10	0.0006787	0.0999981	0
	23	44	5034.722	147.4629	-1.680012	1	147.4724	-0.65273	-2.04171E-006	0.0001171	10	0.0006598	0.0970621	0
	24	46	3993.056	147.5649	-1.404272	1	147.5716	-0.5452273	-2.069816E-006	0.0001184	10	0.0006906	0.101765	0
	25	48	3144.055	147.6469	-1.169058	1	147.6515	-0.4536546	-2.079751E-006	0.000119	10	0.0006829	0.1007413	0
	26	49	2519.531	147.7021	-0.993707	1	147.7054	-0.3854674	-2.05573E-006	0.0001183	10	0.0006792	0.1002732	0
	27	51	2000.762	147.7451	-0.8462672	1	147.7476	-0.3281801	-1.946083E-006	0.0001176	10	0.0006778	0.1001128	0
	28	53	1580.669	147.7829	-0.7278388	1	147.7847	-0.2821826	-1.949916E-006	0.0001179	10	0.0006772	0.1000662	0
	29	55	1253.634	147.8151	-0.6359308	1	147.8165	-0.2464966	-1.809718E-006	0.0001187	10	0.0006767	0.1000199	0
	30	56	1000.702	147.8428	-0.5674053	1	147.8439	-0.2198942	-1.807571E-006	0.0001192	10	0.0006764	0.0999905	0
	31	58	790.0281	147.873	-0.5123438	1	147.8739	-0.1985151	-1.658255E-006	0.0001188	10	0.0006762	0.0999831	0
	32	60	628.811	147.9088	-0.4703419	1	147.9096	-0.1821968	-1.57054E-006	0.0001169	10	0.0006761	0.1000025	0
	33	62	502.2321	147.9512	-0.4470523	1	147.9519	-0.1731255	-1.631339E-006	0.0001173	10	0.0006495	0.0954432	0
	34	63	400.1524	147.9885	-0.4161988	1	147.989	-0.1611367	-1.553234E-006	0.0001171	10	0.0006968	0.1026372	0
	35	65	315.5048	148.0347	-0.3959137	1	148.0352	-0.1532352	-1.568246E-006	0.0001176	10	0.000685	0.101102	0
	36	67	252.0161	148.0769	-0.380208	1	148.0774	-0.1471146	-1.565312E-006	0.0001156	10	0.0006793	0.1003964	0
	37	68	200.3205	148.1238	-0.3660036	1	148.1242	-0.1415736	-1.585771E-006	0.0001143	10	0.0006761	0.1000216	0
	38	70	158.0056	148.1699	-0.3480774	1	148.1703	-0.1345977	-1.676244E-006	0.000113	10	0.0006732	0.0996749	0
	39	72	125.558	148.2088	-0.3366954	1	148.2092	-0.1301623	-1.577412E-006	0.0001162	10	0.0006692	0.0991332	0
	40	73	99.734	148.2538	-0.322972	1	148.2541	-0.1248191	-1.534801E-006	0.0001132	10	0.0006603	0.0978637	0
	41	75	79.44915	148.2971	-0.2934718	1	148.2974	-0.1133851	-1.666868E-006	0.0001155	10	0.0006939	0.1028848	0
	42	77	62.91946	148.3406	-0.2920174	1	148.3409	-0.11279	-1.710273E-006	0.0001144	10	0.0006743	0.1000122	0
	43	79	49.86702	148.3823	-0.2752527	1	148.3825	-0.1062849	-1.66113E-006	0.0001155	10	0.0006742	0.1000287	0
	44	80	38.42213	148.4128	-0.2525171	1	148.413	-0.0974859	-1.613928E-006	0.0001164	10	0.0006738	0.1000021	0
	45	82	31.25	148.4352	-0.251431	1	148.4354	-0.097052	-1.60335E-006	0.0001157	10	0.0006737	0.1000016	0
	46	84	24.93351	148.4628	-0.236796	1	148.463	-0.0913858	-1.634799E-006	0.0001161	10	0.0006736	0.0999978	0
	47	86	20.03205	148.48	-0.2250086	1	148.4802	-0.0868267	-1.668002E-006	0.0001117	10	0.0006735	0.100001	0
	48	88	15.625	148.5013	-0.2176355	1	148.5015	-0.0839695	-1.548423E-006	0.0001135	10	0.0006734	0.0999993	0
	49	90	12.46675	148.5146	-0.2062493	1	148.5147	-0.0795693	-1.501637E-006	0.000114	10	0.0006733	0.1000003	0
	50	92	9.9734	148.5204	-0.1995111	1	148.5205	-0.0769668	-1.572691E-006	0.0001152	10	0.0006733	0.0999998	0
	51	94	7.971939	148.5255	-0.1907562	1	148.5257	-0.0735868	-1.479924E-006	0.0001148	10	0.0006733	0.0999997	0
	52	96	6.351626	148.5315	-0.1859785	1	148.5316	-0.0717409	-1.484762E-006	0.0001144	10	0.0006733	0.0999989	0
	53	99	5.013369	148.5349	-0.1792525	1	148.535	-0.0691447	-1.537989E-006	0.000113	10	0.0006732	0.1000004	0
	54	101	3.985969	148.5349	-0.1790761	1	148.535	-0.0690767	-1.617796E-006	0.0001149	10	0.0006732	0.0999997	0
	55	104	3.175813	148.5361	-0.1738601	1	148.5362	-0.0670642	-1.715967E-006	0.000115	10	0.0006732	0.0999998	0
	56	108	2.516103	148.5382	-0.1530506	1	148.5382	-0.0590363	-1.735209E-006	0.000117	10	0.0006486	0.0964876	0
	57	112	1.99553	148.5327	-0.1514749	1	148.5328	-0.0584307	-1.785771E-006	0.0001165	10	0.0006867	0.1020729	0
	58	116	1.587906	148.5469	-0.1527595	1	148.547	-0.0589206	-1.682269E-006	0.0001175	10	0.0006787	0.1008562	0
	59	121	1.258052	148.5847	-0.1584104	1	148.5848	-0.0610846	-1.61219E-006	0.0001168	10	0.0006753	0.1003665	0
	60	127	0.997765	148.6457	-0.1554775	1	148.6458	-0.0599291	-1.713857E-006	0.0001173	10	0.0006737	0.1001553	0
	61	133	0.7927448	148.6924	-0.154491	1	148.6924	-0.0595301	-1.731308E-006	0.0001162	10	0.0006729	0.1000677	0
	62	140	0.6290258	148.7347	-0.1513693	1	148.7348	-0.0583107	-1.666426E-006	0.0001171	10	0.0006725	0.100032	0
	63	148	0.4988825	148.7604	-0.1466748	1	148.7605	-0.0564925	-1.63036E-006	0.0001165	10	0.0006723	0.1000152	0
	64	158	0.3985969	148.7885	-0.1405651	1	148.7886	-0.0541291	-1.61522E-006	0.0001177	10	0.0006721	0.1000093	0
