EXPLAIN
TAG	EISPOT
TITLE	LABEL	Potentiostatic EIS	Test Identifier
DATE	LABEL	2025/12/24	Date
TIME	LABEL	4:25:15	Time
NOTES	NOTES	1	Notes...
	
PSTAT	PSTAT	IFC1000-11123	Potentiostat
VDC	POTEN	0.00000E+000	T	DC Voltage (V)
FREQINIT	QUANT	1.00000E+006	Initial Freq. (Hz)
FREQFINAL	QUANT	5.00000E-001	Final Freq. (Hz)
PTSPERDEC	QUANT	1.00000E+001	Points/decade
VAC	QUANT	1.00000E+002	AC Voltage (mV rms)
AREA	QUANT	7.85000E-001	Sample Area (cm^2)
SPEED	SELECTOR	1	Optimize for:
DRIFTCOR	SELECTOR	0	Drift Correction
THD	SELECTOR	0	THD
ZGUESS	QUANT	1.00000E+002	Estimated Z (ohms)
EOC	QUANT	-5.815406E-006	Open Circuit (V)
SEQUENCER	TOGGLE	TRUE	Run as Sequence
PSTATMODEL	IQUANT	48	Pstat Model
PSTATSECTION	LABEL	IFC1000-11123	Pstat Section
PSTATSERIALNO	LABEL	11123	Pstat Serial Number
CTRLMODE	IQUANT	1	Control Mode
ELECTROMETER	IQUANT	0	RE=0 or CS=1
IESTAB	IQUANT	0	I/E Stability
CASPEED	IQUANT	3	Control Amp Speed
CONVENTION	IQUANT	1	Current Convention
ICHRANGE	IQUANT	2	Ich Range
ICHRANGEMODE	TOGGLE	F	Ich Auto Range
ICHOFFSETENABLE	TOGGLE	T	Ich Offset Enable
ICHOFFSET	QUANT	0	Ich Offset (V)
ICHFILTER	IQUANT	4	Ich Filter
VCHRANGE	IQUANT	2	Vch Range
VCHRANGEMODE	TOGGLE	F	Vch Auto Range
VCHOFFSETENABLE	TOGGLE	T	Vch Offset Enable
VCHOFFSET	QUANT	0	Vch Offset (V)
VCHFILTER	IQUANT	4	Vch Filter
IERANGELOWERLIMIT	IQUANT	4	I/E Range Lower Limit
IERANGEMODE	TOGGLE	F	I/E AutoRange
IERANGE	IQUANT	11	I/E Range
ACHSELECT	IQUANT	0	Ach Select
ACHRANGE	IQUANT	2	Ach Range
ACHOFFSETENABLE	TOGGLE	F	Ach Offset Enable
ACHOFFSET	QUANT	0	Ach Offset (V)
ACHFILTER	IQUANT	1	Ach Filter
SENSECABLEID	IQUANT	14	Sense Cable ID
PWRCABLEID	IQUANT	14	Power Cable ID
DCCALDATE	LABEL	5/23/2025	DC Calibration Date
ACCALDATE	LABEL	4/29/2023	AC Calibration Date
FRAMEWORKVERSION	LABEL	7.10.0	Framework Version
INSTRUMENTVERSION	LABEL	4.72	Instrument Version
COMMVERSION	LABEL	3.10	Communications Version
CPUPLDVERSION	LABEL	1.10	CPU PLD Version
CTRLPLDVERSION	LABEL	0.00	CTRL PLD Version
PSTATPLDVERSION	LABEL	0.00	PSTAT PLD Version
ZCURVE	TABLE
	Pt	Time	Freq	Zreal	Zimag	Zsig	Zmod	Zphz	Idc	Vdc	IERange	Imod	Vmod	Temp
	#	s	Hz	ohm	ohm	V	ohm	°	A	V	#	A	V	°C
	0	4	1000020	123.1819	-3.773525	1	123.2397	-1.754636	-1.249214E-005	0.0002612	10	0.0008435	0.0998082	0
	1	6	794355.5	124.4189	-4.85569	1	124.5136	-2.234946	-1.228167E-005	0.0002609	10	0.0012471	0.150622	0
	2	8	630996.1	125.7178	-5.769448	1	125.8501	-2.627578	-1.249705E-005	0.0002725	10	0.0011066	0.1361005	0
	3	9	501269.5	127.0738	-6.54291	1	127.2421	-2.947503	-1.276163E-005	0.0002615	10	0.0010244	0.1280608	0
	4	11	398144.5	128.4665	-7.224396	1	128.6694	-3.218676	-1.288076E-005	0.0002534	10	0.0009689	0.1229362	0
	5	13	316230.5	129.93	-7.743724	1	130.1605	-3.410749	-1.29901E-005	0.0002361	10	0.0009236	0.1188645	0
	6	15	251191.4	131.4008	-8.164218	1	131.6542	-3.555342	-1.30944E-005	0.0002302	10	0.0008793	0.1147004	0
	7	17	199628.9	132.9405	-8.455144	1	133.2091	-3.639166	-1.318385E-005	0.000209	10	0.0008415	0.1112525	0
	8	18	158496.1	134.5167	-8.598941	1	134.7912	-3.65764	-1.31205E-005	0.0002258	10	0.0008082	0.1082752	0
	9	20	125918	136.1	-8.635885	1	136.3737	-3.630692	-1.305767E-005	0.0002215	10	0.0007779	0.1055821	0
	10	22	100019.5	137.6727	-8.505129	1	137.9352	-3.535119	-2.021253E-006	0.000101	10	0.0007352	0.100993	0
	11	24	79511.72	139.145	-8.256592	1	139.3898	-3.395837	-2.1173E-006	0.0000977	10	0.0007496	0.1042085	0
	12	25	63105.47	140.5978	-7.867787	1	140.8177	-3.202905	-2.134962E-006	9.36343E-005	10	0.0007274	0.1022602	0
	13	27	50214.84	141.9218	-7.352675	1	142.1121	-2.965724	-2.169248E-006	9.279596E-005	10	0.0007127	0.1011684	0
	14	29	39902.34	143.1053	-6.739518	1	143.2639	-2.696342	-2.071053E-006	9.199033E-005	10	0.0007031	0.1006617	0
	15	31	31699.22	144.1416	-6.056157	1	144.2688	-2.405886	-2.117243E-006	9.165623E-005	10	0.0006961	0.1003834	0
	16	33	25136.72	145.0039	-5.351002	1	145.1026	-2.113396	-2.090887E-006	8.876893E-005	10	0.0006909	0.1002216	0
	17	34	19980.47	145.7061	-4.666604	1	145.7809	-1.834414	-2.099688E-006	8.947239E-005	10	0.0006867	0.1000926	0
	18	36	15878.91	146.268	-4.014645	1	146.323	-1.572214	-2.050085E-006	9.103659E-005	10	0.000684	0.1000672	0
	19	38	12597.66	146.7167	-3.409336	1	146.7563	-1.331174	-2.081312E-006	8.975482E-005	10	0.0006818	0.1000483	0
	20	40	10019.53	147.0504	-2.879438	1	147.0786	-1.121782	-2.012435E-006	8.944335E-005	10	0.0006802	0.1000402	0
	21	41	7928.241	147.3134	-2.414798	1	147.3332	-0.9391222	-1.483418E-007	0.0001462	10	0.0006787	0.0999906	0
	22	43	6307.871	147.5072	-2.013314	1	147.521	-0.7819769	-1.234621E-007	0.0001453	10	0.0006781	0.10003	0
	23	45	5034.722	147.6476	-1.69683	1	147.6573	-0.658439	-1.781335E-006	0.0001185	10	0.000659	0.0970617	0
	24	47	3993.056	147.7641	-1.416657	1	147.7709	-0.5492942	-1.76969E-006	0.0001178	10	0.0006897	0.1017641	0
	25	48	3144.055	147.8595	-1.180549	1	147.8642	-0.4574546	-1.814518E-006	0.0001175	10	0.0006819	0.1007425	0
	26	50	2519.531	147.9354	-1.003426	1	147.9388	-0.3886234	-1.773581E-006	0.0001195	10	0.0006781	0.1002723	0
	27	52	2000.762	148.0071	-0.8543938	1	148.0096	-0.330745	-1.755179E-006	0.0001181	10	0.0006766	0.1001132	0
	28	54	1580.669	148.0646	-0.7343151	1	148.0664	-0.2841517	-1.693993E-006	0.0001193	10	0.0006758	0.1000368	0
	29	55	1253.634	148.1132	-0.6410651	1	148.1146	-0.2479866	-1.731646E-006	0.0001185	10	0.0006754	0.1000196	0
	30	57	1000.702	148.1571	-0.5710905	1	148.1582	-0.2208528	-1.729602E-006	0.0001191	10	0.0006749	0.0999896	0
	31	59	790.0281	148.2047	-0.5154772	1	148.2056	-0.1992822	-1.717604E-006	0.0001217	10	0.0006749	0.1000164	0
	32	60	628.811	148.2474	-0.472305	1	148.2482	-0.1825393	-1.746862E-006	0.0001181	10	0.0006744	0.0999697	0
	33	62	502.2321	148.3003	-0.4490223	1	148.301	-0.1734791	-1.832264E-006	0.0001157	10	0.000648	0.0954418	0
	34	64	400.1524	148.3396	-0.4187359	1	148.3402	-0.1617352	-1.755888E-006	0.0001156	10	0.0006951	0.1026379	0
	35	66	315.5048	148.384	-0.3974643	1	148.3846	-0.1534732	-1.807802E-006	0.0001159	10	0.0006836	0.1011335	0
	36	67	252.0161	148.4268	-0.380864	1	148.4272	-0.147021	-1.90798E-006	0.0001129	10	0.0006775	0.1003659	0
	37	69	200.3205	148.4739	-0.3655811	1	148.4743	-0.1410768	-1.933711E-006	0.0001129	10	0.0006747	0.1000537	0
	38	71	158.0056	148.5175	-0.3526744	1	148.5179	-0.1360561	-1.915017E-006	0.0001146	10	0.0006717	0.0996755	0
	39	72	125.558	148.5625	-0.3414783	1	148.5629	-0.1316969	-1.897933E-006	0.0001158	10	0.0006674	0.0991042	0
	40	74	99.734	148.6009	-0.3257553	1	148.6012	-0.1256007	-1.881899E-006	0.0001148	10	0.0006588	0.0978638	0
	41	76	79.44915	148.6371	-0.2947147	1	148.6373	-0.1136048	-1.990268E-006	0.0001142	10	0.0006924	0.1029019	0
	42	78	62.91946	148.6719	-0.2969787	1	148.6722	-0.1144507	-2.080174E-006	0.0001112	10	0.0006728	0.1000075	0
	43	79	49.86702	148.7112	-0.2814306	1	148.7114	-0.1084301	-2.057204E-006	0.0001148	10	0.0006727	0.1000285	0
	44	81	38.42213	148.7556	-0.2575237	1	148.7558	-0.0991896	-2.03043E-006	0.0001149	10	0.0006723	0.1000041	0
	45	83	31.25	148.7928	-0.2550464	1	148.793	-0.0982108	-2.068153E-006	0.0001132	10	0.0006721	0.1000014	0
	46	85	24.93351	148.8235	-0.2398942	1	148.8237	-0.0923571	-1.983977E-006	0.0001131	10	0.0006719	0.0999977	0
	47	87	20.03205	148.8503	-0.2267075	1	148.8504	-0.0872647	-2.008232E-006	0.000112	10	0.0006718	0.0999998	0
	48	89	15.625	148.8704	-0.2163373	1	148.8705	-0.0832617	-1.963811E-006	0.0001142	10	0.0006717	0.0999994	0
	49	90	12.46675	148.8818	-0.2086561	1	148.882	-0.0802993	-1.966485E-006	0.0001149	10	0.0006717	0.1000003	0
	50	93	9.9734	148.8841	-0.1994618	1	148.8843	-0.0767598	-1.925377E-006	0.0001154	10	0.0006717	0.1000003	0
	51	95	7.971939	148.8911	-0.1909313	1	148.8913	-0.0734735	-1.934181E-006	0.0001141	10	0.0006716	0.0999991	0
	52	97	6.351626	148.8925	-0.1861669	1	148.8926	-0.0716394	-1.921029E-006	0.0001151	10	0.0006716	0.1000004	0
	53	99	5.013369	148.8959	-0.1806966	1	148.896	-0.0695328	-1.990425E-006	0.0001123	10	0.0006716	0.1000001	0
	54	102	3.985969	148.8929	-0.1757246	1	148.893	-0.0676209	-1.826757E-006	0.000115	10	0.0006716	0.1	0
	55	105	3.175813	148.8797	-0.1736763	1	148.8798	-0.0668386	-1.791667E-006	0.0001138	10	0.0006717	0.0999996	0
	56	108	2.516103	148.8821	-0.1504443	1	148.8822	-0.057897	-1.70144E-006	0.0001151	10	0.0006471	0.0964861	0
	57	112	1.99553	148.8681	-0.1489904	1	148.8681	-0.0573428	-1.691094E-006	0.0001174	10	0.0006851	0.1020736	0
	58	117	1.587906	148.8919	-0.1548914	1	148.892	-0.0596044	-1.681649E-006	0.000117	10	0.0006771	0.1008565	0
	59	122	1.258052	148.9129	-0.1571727	1	148.913	-0.0604738	-1.694141E-006	0.0001177	10	0.0006739	0.1003666	0
	60	128	0.997765	148.9423	-0.1535669	1	148.9424	-0.0590748	-1.7136E-006	0.0001174	10	0.0006724	0.1001553	0
	61	134	0.7927448	148.9431	-0.1528847	1	148.9432	-0.058812	-1.696688E-006	0.0001172	10	0.0006718	0.1000678	0
	62	141	0.6290258	148.9364	-0.1527773	1	148.9364	-0.0587734	-1.786187E-006	0.0001167	10	0.0006716	0.1000316	0
	63	149	0.4988825	148.9138	-0.1432346	1	148.9138	-0.0551106	-1.741594E-006	0.0001169	10	0.0006716	0.1000153	0
	64	159	0.3985969	148.8868	-0.137174	1	148.8869	-0.0527884	-1.529485E-006	0.0001158	10	0.0006717	0.1000091	0
