EXPLAIN
TAG	EISPOT
TITLE	LABEL	Potentiostatic EIS	Test Identifier
DATE	LABEL	2025/12/24	Date
TIME	LABEL	4:34:42	Time
NOTES	NOTES	1	Notes...
	
PSTAT	PSTAT	IFC1000-11123	Potentiostat
VDC	POTEN	0.00000E+000	T	DC Voltage (V)
FREQINIT	QUANT	1.00000E+006	Initial Freq. (Hz)
FREQFINAL	QUANT	5.00000E-001	Final Freq. (Hz)
PTSPERDEC	QUANT	1.00000E+001	Points/decade
VAC	QUANT	1.00000E+002	AC Voltage (mV rms)
AREA	QUANT	7.85000E-001	Sample Area (cm^2)
SPEED	SELECTOR	1	Optimize for:
DRIFTCOR	SELECTOR	0	Drift Correction
THD	SELECTOR	0	THD
ZGUESS	QUANT	1.00000E+002	Estimated Z (ohms)
EOC	QUANT	-5.052889E-006	Open Circuit (V)
SEQUENCER	TOGGLE	TRUE	Run as Sequence
PSTATMODEL	IQUANT	48	Pstat Model
PSTATSECTION	LABEL	IFC1000-11123	Pstat Section
PSTATSERIALNO	LABEL	11123	Pstat Serial Number
CTRLMODE	IQUANT	1	Control Mode
ELECTROMETER	IQUANT	0	RE=0 or CS=1
IESTAB	IQUANT	0	I/E Stability
CASPEED	IQUANT	3	Control Amp Speed
CONVENTION	IQUANT	1	Current Convention
ICHRANGE	IQUANT	2	Ich Range
ICHRANGEMODE	TOGGLE	F	Ich Auto Range
ICHOFFSETENABLE	TOGGLE	T	Ich Offset Enable
ICHOFFSET	QUANT	0	Ich Offset (V)
ICHFILTER	IQUANT	4	Ich Filter
VCHRANGE	IQUANT	2	Vch Range
VCHRANGEMODE	TOGGLE	F	Vch Auto Range
VCHOFFSETENABLE	TOGGLE	T	Vch Offset Enable
VCHOFFSET	QUANT	0	Vch Offset (V)
VCHFILTER	IQUANT	4	Vch Filter
IERANGELOWERLIMIT	IQUANT	4	I/E Range Lower Limit
IERANGEMODE	TOGGLE	F	I/E AutoRange
IERANGE	IQUANT	11	I/E Range
ACHSELECT	IQUANT	0	Ach Select
ACHRANGE	IQUANT	2	Ach Range
ACHOFFSETENABLE	TOGGLE	F	Ach Offset Enable
ACHOFFSET	QUANT	0	Ach Offset (V)
ACHFILTER	IQUANT	1	Ach Filter
SENSECABLEID	IQUANT	14	Sense Cable ID
PWRCABLEID	IQUANT	14	Power Cable ID
DCCALDATE	LABEL	5/23/2025	DC Calibration Date
ACCALDATE	LABEL	4/29/2023	AC Calibration Date
FRAMEWORKVERSION	LABEL	7.10.0	Framework Version
INSTRUMENTVERSION	LABEL	4.72	Instrument Version
COMMVERSION	LABEL	3.10	Communications Version
CPUPLDVERSION	LABEL	1.10	CPU PLD Version
CTRLPLDVERSION	LABEL	0.00	CTRL PLD Version
PSTATPLDVERSION	LABEL	0.00	PSTAT PLD Version
ZCURVE	TABLE
	Pt	Time	Freq	Zreal	Zimag	Zsig	Zmod	Zphz	Idc	Vdc	IERange	Imod	Vmod	Temp
	#	s	Hz	ohm	ohm	V	ohm	°	A	V	#	A	V	°C
	0	4	1000020	123.3475	-3.836995	1	123.4071	-1.781737	-1.219599E-005	0.0002583	10	0.0008426	0.0998387	0
	1	6	794355.5	124.5843	-4.904811	1	124.6808	-2.254538	-1.219693E-005	0.0002653	10	0.0012441	0.1504564	0
	2	7	630996.1	125.8904	-5.825273	1	126.0251	-2.649334	-1.266786E-005	0.0002628	10	0.0011054	0.1361385	0
	3	9	501269.5	127.2606	-6.594503	1	127.4314	-2.96635	-1.278317E-005	0.0002554	10	0.0010232	0.1280938	0
	4	11	398144.5	128.6709	-7.26144	1	128.8756	-3.230016	-1.29073E-005	0.0002528	10	0.0009676	0.1229636	0
	5	13	316230.5	130.1264	-7.789304	1	130.3594	-3.425609	-1.301473E-005	0.0002333	10	0.0009223	0.1188821	0
	6	15	251191.4	131.6211	-8.205207	1	131.8766	-3.56718	-1.312623E-005	0.0002324	10	0.0008779	0.1147112	0
	7	16	199628.9	133.1713	-8.495422	1	133.442	-3.650134	-1.328225E-005	0.0002144	10	0.0008402	0.1112662	0
	8	18	158496.1	134.7384	-8.647168	1	135.0155	-3.672063	-1.308083E-005	0.000226	10	0.0008061	0.1081763	0
	9	20	125918	136.3322	-8.680541	1	136.6083	-3.643217	-1.324163E-005	0.000218	10	0.0007766	0.1055876	0
	10	22	100019.5	137.9003	-8.539589	1	138.1645	-3.543562	-2.049021E-006	0.0000999	10	0.000734	0.1009972	0
	11	24	79511.72	139.3813	-8.300084	1	139.6282	-3.407909	-2.092375E-006	0.0000981	10	0.0007483	0.104211	0
	12	25	63105.47	140.832	-7.9073	1	141.0538	-3.213614	-2.130806E-006	9.10525E-005	10	0.000726	0.1022289	0
	13	27	50214.84	142.1644	-7.393003	1	142.3564	-2.976883	-2.141714E-006	9.328115E-005	10	0.0007117	0.1012018	0
	14	29	39902.34	143.3556	-6.77529	1	143.5156	-2.705908	-2.144062E-006	8.987909E-005	10	0.0007019	0.1006624	0
	15	31	31699.22	144.4005	-6.101309	1	144.5293	-2.419462	-2.097787E-006	9.060674E-005	10	0.0006947	0.1003522	0
	16	32	25136.72	145.2747	-5.387579	1	145.3745	-2.123868	-2.128606E-006	9.006815E-005	10	0.0006896	0.1002193	0
	17	34	19980.47	145.9804	-4.690586	1	146.0558	-1.840372	-2.124775E-006	9.078276E-005	10	0.0006856	0.1001232	0
	18	36	15878.91	146.5419	-4.0376	1	146.5975	-1.578244	-2.128451E-006	8.987289E-005	10	0.0006827	0.1000691	0
	19	38	12597.66	146.9734	-3.432076	1	147.0135	-1.33771	-2.060538E-006	9.09199E-005	10	0.0006806	0.1000456	0
	20	39	10019.53	147.3079	-2.895866	1	147.3363	-1.126209	-1.990523E-006	8.952175E-005	10	0.0006788	0.1000081	0
	21	41	7928.241	147.5701	-2.426942	1	147.5901	-0.9422028	-1.250955E-007	0.0001473	10	0.0006777	0.1000219	0
	22	43	6307.871	147.7598	-2.027686	1	147.7737	-0.7862124	-1.68647E-007	0.0001466	10	0.0006767	0.0999974	0
	23	45	5034.722	147.9039	-1.708792	1	147.9138	-0.6619312	-1.782385E-006	0.0001202	10	0.0006579	0.0970618	0
	24	46	3993.056	148.0191	-1.426502	1	148.0259	-0.5521588	-1.770369E-006	0.0001193	10	0.0006885	0.1017644	0
	25	48	3144.055	148.1095	-1.190565	1	148.1143	-0.4605571	-1.78865E-006	0.0001171	10	0.0006807	0.100742	0
	26	50	2519.531	148.1773	-1.009353	1	148.1808	-0.3902808	-1.799458E-006	0.0001178	10	0.000677	0.1002726	0
	27	52	2000.762	148.2346	-0.8590744	1	148.2371	-0.3320465	-1.771505E-006	0.0001165	10	0.0006758	0.1001436	0
	28	53	1580.669	148.2861	-0.7391333	1	148.2879	-0.285589	-1.721519E-006	0.0001192	10	0.0006747	0.1000364	0
	29	55	1253.634	148.3323	-0.6441662	1	148.3337	-0.2488182	-1.756473E-006	0.0001193	10	0.0006744	0.1000204	0
	30	57	1000.702	148.3783	-0.5737845	1	148.3794	-0.2215638	-1.777055E-006	0.0001192	10	0.0006739	0.0999904	0
	31	59	790.0281	148.4266	-0.5178239	1	148.4275	-0.1998901	-1.778162E-006	0.0001186	10	0.0006736	0.0999828	0
	32	60	628.811	148.4734	-0.4737298	1	148.4742	-0.1828113	-1.79179E-006	0.0001196	10	0.0006736	0.1000035	0
	33	62	502.2321	148.5276	-0.4505008	1	148.5283	-0.1737839	-1.80851E-006	0.0001166	10	0.000647	0.0954422	0
	34	64	400.1524	148.5733	-0.4195274	1	148.5739	-0.161786	-1.789546E-006	0.0001173	10	0.000694	0.1026387	0
	35	65	315.5048	148.6214	-0.3972387	1	148.622	-0.1531411	-1.755468E-006	0.0001171	10	0.0006825	0.1011325	0
	36	67	252.0161	148.6672	-0.3793048	1	148.6677	-0.1461823	-1.715858E-006	0.0001138	10	0.0006764	0.1003689	0
	37	69	200.3205	148.7173	-0.3645822	1	148.7177	-0.140461	-1.667571E-006	0.0001161	10	0.0006734	0.100022	0
	38	71	158.0056	148.7699	-0.3516909	1	148.7703	-0.1354465	-1.621767E-006	0.0001146	10	0.0006705	0.0996757	0
	39	72	125.558	148.8188	-0.3367787	1	148.8192	-0.1296608	-1.634327E-006	0.0001181	10	0.0006665	0.099134	0
	40	74	99.734	148.8691	-0.3249173	1	148.8694	-0.1250519	-1.665309E-006	0.0001174	10	0.0006576	0.0978641	0
	41	76	79.44915	148.9158	-0.2929941	1	148.9161	-0.1127302	-1.689708E-006	0.0001161	10	0.000691	0.1028857	0
	42	77	62.91946	148.9672	-0.2962971	1	148.9675	-0.1139617	-1.729017E-006	0.0001127	10	0.0006715	0.1000121	0
	43	79	49.86702	149.02	-0.2800606	1	149.0202	-0.1076787	-1.708778E-006	0.0001171	10	0.0006713	0.1000281	0
	44	81	38.42213	149.0734	-0.2566477	1	149.0736	-0.0986414	-1.621745E-006	0.0001163	10	0.0006709	0.1000038	0
	45	83	31.25	149.1146	-0.2539693	1	149.1148	-0.097585	-1.609112E-006	0.0001154	10	0.0006706	0.1000002	0
	46	85	24.93351	149.1569	-0.2433846	1	149.1571	-0.0934914	-1.651289E-006	0.0001146	10	0.0006704	0.0999996	0
	47	86	20.03205	149.2015	-0.2278077	1	149.2017	-0.0874818	-1.651508E-006	0.0001131	10	0.0006702	0.0999989	0
	48	88	15.625	149.2425	-0.2189511	1	149.2427	-0.0840576	-1.619101E-006	0.0001156	10	0.0006701	0.1000003	0
	49	90	12.46675	149.2751	-0.2077308	1	149.2752	-0.0797326	-1.608181E-006	0.0001166	10	0.0006699	0.0999999	0
	50	92	9.9734	149.3025	-0.2015563	1	149.3026	-0.0773485	-1.678531E-006	0.0001151	10	0.0006698	0.0999999	0
	51	95	7.971939	149.3258	-0.1947316	1	149.3259	-0.0747178	-1.697677E-006	0.0001153	10	0.0006697	0.0999998	0
	52	97	6.351626	149.3336	-0.1858339	1	149.3337	-0.0713001	-1.833904E-006	0.0001153	10	0.0006696	0.0999997	0
	53	99	5.013369	149.3363	-0.1817826	1	149.3364	-0.0697444	-1.821298E-006	0.000112	10	0.0006696	0.1	0
	54	102	3.985969	149.333	-0.176443	1	149.3331	-0.0676972	-1.919706E-006	0.0001152	10	0.0006696	0.0999997	0
	55	105	3.175813	149.3257	-0.1735169	1	149.3258	-0.0665778	-1.958073E-006	0.0001155	10	0.0006697	0.0999995	0
	56	108	2.516103	149.3246	-0.1520218	1	149.3247	-0.0583307	-1.906521E-006	0.0001177	10	0.0006452	0.0964873	0
	57	112	1.99553	149.32	-0.1488799	1	149.3201	-0.0571269	-1.898427E-006	0.0001163	10	0.0006831	0.1020729	0
	58	116	1.587906	149.3358	-0.1557728	1	149.3358	-0.0597654	-1.85697E-006	0.0001168	10	0.0006751	0.1008571	0
	59	122	1.258052	149.3412	-0.1560167	1	149.3413	-0.0598569	-1.572467E-006	0.000116	10	0.0006719	0.100366	0
	60	128	0.997765	149.335	-0.1548195	1	149.3351	-0.0594	-1.420065E-006	0.0001164	10	0.0006706	0.1001548	0
	61	134	0.7927448	149.3415	-0.1573263	1	149.3416	-0.0603592	-1.531391E-006	0.0001167	10	0.00067	0.100068	0
	62	141	0.6290258	149.3395	-0.1502777	1	149.3395	-0.0576557	-1.57951E-006	0.0001163	10	0.0006698	0.100032	0
	63	149	0.4988825	149.336	-0.1438503	1	149.3361	-0.0551911	-1.417312E-006	0.0001165	10	0.0006697	0.1000155	0
	64	159	0.3985969	149.3323	-0.1396539	1	149.3324	-0.0535823	-1.561856E-006	0.0001174	10	0.0006697	0.1000085	0
