EXPLAIN
TAG	EISPOT
TITLE	LABEL	Potentiostatic EIS	Test Identifier
DATE	LABEL	2025/12/24	Date
TIME	LABEL	2:03:32	Time
NOTES	NOTES	1	Notes...
	
PSTAT	PSTAT	IFC1000-11123	Potentiostat
VDC	POTEN	0.00000E+000	T	DC Voltage (V)
FREQINIT	QUANT	1.00000E+006	Initial Freq. (Hz)
FREQFINAL	QUANT	5.00000E-001	Final Freq. (Hz)
PTSPERDEC	QUANT	1.00000E+001	Points/decade
VAC	QUANT	1.00000E+002	AC Voltage (mV rms)
AREA	QUANT	7.85000E-001	Sample Area (cm^2)
SPEED	SELECTOR	1	Optimize for:
DRIFTCOR	SELECTOR	0	Drift Correction
THD	SELECTOR	0	THD
ZGUESS	QUANT	1.00000E+002	Estimated Z (ohms)
EOC	QUANT	-8.449337E-006	Open Circuit (V)
SEQUENCER	TOGGLE	TRUE	Run as Sequence
PSTATMODEL	IQUANT	48	Pstat Model
PSTATSECTION	LABEL	IFC1000-11123	Pstat Section
PSTATSERIALNO	LABEL	11123	Pstat Serial Number
CTRLMODE	IQUANT	1	Control Mode
ELECTROMETER	IQUANT	0	RE=0 or CS=1
IESTAB	IQUANT	0	I/E Stability
CASPEED	IQUANT	3	Control Amp Speed
CONVENTION	IQUANT	1	Current Convention
ICHRANGE	IQUANT	2	Ich Range
ICHRANGEMODE	TOGGLE	F	Ich Auto Range
ICHOFFSETENABLE	TOGGLE	T	Ich Offset Enable
ICHOFFSET	QUANT	0	Ich Offset (V)
ICHFILTER	IQUANT	4	Ich Filter
VCHRANGE	IQUANT	2	Vch Range
VCHRANGEMODE	TOGGLE	F	Vch Auto Range
VCHOFFSETENABLE	TOGGLE	T	Vch Offset Enable
VCHOFFSET	QUANT	0	Vch Offset (V)
VCHFILTER	IQUANT	4	Vch Filter
IERANGELOWERLIMIT	IQUANT	4	I/E Range Lower Limit
IERANGEMODE	TOGGLE	F	I/E AutoRange
IERANGE	IQUANT	11	I/E Range
ACHSELECT	IQUANT	0	Ach Select
ACHRANGE	IQUANT	2	Ach Range
ACHOFFSETENABLE	TOGGLE	F	Ach Offset Enable
ACHOFFSET	QUANT	0	Ach Offset (V)
ACHFILTER	IQUANT	1	Ach Filter
SENSECABLEID	IQUANT	14	Sense Cable ID
PWRCABLEID	IQUANT	14	Power Cable ID
DCCALDATE	LABEL	5/23/2025	DC Calibration Date
ACCALDATE	LABEL	4/29/2023	AC Calibration Date
FRAMEWORKVERSION	LABEL	7.10.0	Framework Version
INSTRUMENTVERSION	LABEL	4.72	Instrument Version
COMMVERSION	LABEL	3.10	Communications Version
CPUPLDVERSION	LABEL	1.10	CPU PLD Version
CTRLPLDVERSION	LABEL	0.00	CTRL PLD Version
PSTATPLDVERSION	LABEL	0.00	PSTAT PLD Version
ZCURVE	TABLE
	Pt	Time	Freq	Zreal	Zimag	Zsig	Zmod	Zphz	Idc	Vdc	IERange	Imod	Vmod	Temp
	#	s	Hz	ohm	ohm	V	ohm	°	A	V	#	A	V	°C
	0	4	1000020	122.4275	-3.37522	1	122.474	-1.579195	-1.234055E-005	0.0002638	10	0.0008504	0.0999986	0
	1	6	794355.5	123.5853	-4.479844	1	123.6665	-2.076006	-1.220628E-005	0.0002653	10	0.0012551	0.1505577	0
	2	7	630996.1	124.8296	-5.420739	1	124.9472	-2.486514	-1.236578E-005	0.0002672	10	0.0011152	0.136168	0
	3	9	501269.5	126.1297	-6.221966	1	126.2831	-2.824106	-1.263306E-005	0.0002606	10	0.0010311	0.127929	0
	4	11	398144.5	127.5067	-6.89582	1	127.6931	-3.095655	-1.274496E-005	0.0002506	10	0.0009782	0.1231701	0
	5	13	316230.5	128.9103	-7.450221	1	129.1254	-3.307663	-1.289551E-005	0.0002367	10	0.0009302	0.1187685	0
	6	15	251191.4	130.3683	-7.878247	1	130.6061	-3.458219	-1.2995E-005	0.0002264	10	0.0008858	0.1146296	0
	7	16	199628.9	131.8629	-8.161213	1	132.1152	-3.541613	-1.302469E-005	0.0002052	10	0.0008481	0.1112008	0
	8	18	158496.1	133.4037	-8.308137	1	133.6621	-3.563674	-1.286063E-005	0.0002225	10	0.0008164	0.108453	0
	9	20	125918	134.9604	-8.320342	1	135.2166	-3.527835	-1.29725E-005	0.0002163	10	0.0007848	0.1056069	0
	10	22	100019.5	136.465	-8.181058	1	136.71	-3.430768	-1.747503E-006	0.000099	10	0.0007418	0.1009976	0
	11	23	79511.72	137.8914	-7.92739	1	138.1191	-3.290318	-1.880453E-006	0.0000962	10	0.0007566	0.1042231	0
	12	25	63105.47	139.2764	-7.521292	1	139.4793	-3.09112	-1.786688E-006	9.192841E-005	10	0.0007343	0.1022469	0
	13	27	50214.84	140.5351	-7.006132	1	140.7096	-2.854018	-1.795781E-006	9.154598E-005	10	0.0007199	0.1011909	0
	14	29	39902.34	141.6629	-6.399154	1	141.8074	-2.586389	-1.905377E-006	8.887803E-005	10	0.0007103	0.1006559	0
	15	31	31699.22	142.6243	-5.735902	1	142.7396	-2.303015	-1.913171E-006	8.763495E-005	10	0.0007036	0.1003787	0
	16	32	25136.72	143.4242	-5.041679	1	143.5128	-2.013245	-1.863933E-006	8.964917E-005	10	0.0006985	0.1002171	0
	17	34	19980.47	144.0671	-4.380688	1	144.1337	-1.741672	-1.878375E-006	8.830952E-005	10	0.0006948	0.1001197	0
	18	36	15878.91	144.5768	-3.754419	1	144.6256	-1.487541	-1.942612E-006	8.702831E-005	10	0.000692	0.1000652	0
	19	38	12597.66	144.9716	-3.179351	1	145.0064	-1.256344	-1.961246E-006	8.959055E-005	10	0.00069	0.100046	0
	20	39	10019.53	145.2624	-2.692771	1	145.2874	-1.061987	-1.872208E-006	8.960965E-005	10	0.0006884	0.1000067	0
	21	41	7928.241	145.4992	-2.244972	1	145.5165	-0.8839721	-5.898028E-008	0.0001456	10	0.0006874	0.1000198	0
	22	43	6307.871	145.6687	-1.8756	1	145.6807	-0.7376879	-6.101141E-008	0.0001467	10	0.0006866	0.1000285	0
	23	45	5034.722	145.8	-1.580682	1	145.8086	-0.6211444	-1.680549E-006	0.0001182	10	0.0006673	0.0970598	0
	24	46	3993.056	145.9092	-1.321459	1	145.9151	-0.518898	-1.772701E-006	0.000117	10	0.0006984	0.1017634	0
	25	48	3144.055	146.0008	-1.103207	1	146.005	-0.4329284	-1.75028E-006	0.0001164	10	0.0006903	0.1007095	0
	26	50	2519.531	146.0742	-0.9393485	1	146.0772	-0.3684426	-1.754951E-006	0.0001164	10	0.000687	0.1003031	0
	27	52	2000.762	146.1323	-0.8036995	1	146.1345	-0.3151126	-1.726778E-006	0.0001174	10	0.0006853	0.1001116	0
	28	53	1580.669	146.1931	-0.6934701	1	146.1948	-0.2717816	-1.695481E-006	0.0001167	10	0.0006844	0.1000357	0
	29	55	1253.634	146.2459	-0.6099875	1	146.2472	-0.2389777	-1.716782E-006	0.0001163	10	0.000684	0.1000194	0
	30	57	1000.702	146.2922	-0.5457432	1	146.2932	-0.213741	-1.726033E-006	0.0001157	10	0.0006837	0.1000197	0
	31	59	790.0281	146.3403	-0.4953569	1	146.3411	-0.1939435	-1.757968E-006	0.0001176	10	0.0006832	0.0999826	0
	32	60	628.811	146.3867	-0.4583492	1	146.3874	-0.1793974	-1.74408E-006	0.0001176	10	0.0006832	0.1000027	0
	33	62	502.2321	146.4448	-0.4342961	1	146.4455	-0.1699156	-1.825844E-006	0.0001156	10	0.000656	0.0954137	0
	34	64	400.1524	146.486	-0.4062802	1	146.4865	-0.15891	-1.853663E-006	0.0001162	10	0.0007039	0.1026374	0
	35	65	315.5048	146.531	-0.3844317	1	146.5315	-0.1503181	-1.871781E-006	0.0001153	10	0.0006922	0.1011319	0
	36	67	252.0161	146.5755	-0.367606	1	146.5759	-0.1436954	-1.907299E-006	0.0001137	10	0.0006863	0.1003979	0
	37	69	200.3205	146.6229	-0.3516358	1	146.6234	-0.1374083	-1.851646E-006	0.0001137	10	0.000683	0.1000219	0
	38	70	158.0056	146.6697	-0.3390051	1	146.6701	-0.1324304	-1.828775E-006	0.0001135	10	0.0006801	0.0996762	0
	39	72	125.558	146.7132	-0.3246365	1	146.7136	-0.1267798	-1.857814E-006	0.000116	10	0.0006758	0.0991037	0
	40	74	99.734	146.7581	-0.3108726	1	146.7584	-0.1213675	-1.833417E-006	0.0001127	10	0.0006672	0.0978928	0
	41	76	79.44915	146.7974	-0.2830389	1	146.7977	-0.1104714	-1.912877E-006	0.0001123	10	0.0007009	0.1028751	0
	42	77	62.91946	146.839	-0.2787848	1	146.8393	-0.1087802	-1.962569E-006	0.0001109	10	0.0006812	0.1000106	0
	43	79	49.86702	146.8736	-0.2661325	1	146.8738	-0.1038189	-1.967436E-006	0.0001126	10	0.0006811	0.1000296	0
	44	81	38.42213	146.9144	-0.2436223	1	146.9146	-0.0950112	-1.825868E-006	0.0001139	10	0.0006807	0.1000017	0
	45	83	31.25	146.95	-0.2410785	1	146.9502	-0.0939964	-1.730661E-006	0.0001128	10	0.0006805	0.1000021	0
	46	85	24.93351	146.9865	-0.2276632	1	146.9866	-0.0887437	-1.646066E-006	0.0001137	10	0.0006803	0.0999981	0
	47	86	20.03205	147.0196	-0.2191347	1	147.0198	-0.0854001	-1.675886E-006	0.0001095	10	0.0006802	0.1000007	0
	48	88	15.625	147.0534	-0.2105338	1	147.0536	-0.0820293	-1.72142E-006	0.0001136	10	0.00068	0.0999997	0
	49	90	12.46675	147.0869	-0.2012482	1	147.087	-0.0783936	-1.764343E-006	0.0001122	10	0.0006799	0.0999992	0
	50	92	9.9734	147.1148	-0.194535	1	147.115	-0.0757641	-1.781226E-006	0.0001131	10	0.0006797	0.1000004	0
	51	94	7.971939	147.1384	-0.1878712	1	147.1386	-0.0731571	-1.759964E-006	0.0001121	10	0.0006796	0.0999989	0
	52	97	6.351626	147.155	-0.1814287	1	147.1551	-0.0706404	-1.740294E-006	0.0001128	10	0.0006796	0.1000001	0
	53	99	5.013369	147.1642	-0.1785001	1	147.1643	-0.0694958	-1.739922E-006	0.0001103	10	0.0006795	0.1	0
	54	102	3.985969	147.1698	-0.1743821	1	147.1699	-0.06789	-1.744731E-006	0.0001122	10	0.0006795	0.1	0
	55	105	3.175813	147.1797	-0.1751483	1	147.1798	-0.0681837	-1.755171E-006	0.0001126	10	0.0006794	0.0999997	0
	56	108	2.516103	147.1972	-0.1533956	1	147.1973	-0.0597085	-1.759663E-006	0.000116	10	0.0006545	0.096487	0
	57	112	1.99553	147.2029	-0.1509784	1	147.2029	-0.0587653	-1.728853E-006	0.0001174	10	0.0006929	0.1020738	0
	58	116	1.587906	147.2412	-0.1553115	1	147.2413	-0.0604361	-1.74706E-006	0.0001166	10	0.0006847	0.1008564	0
	59	122	1.258052	147.2968	-0.1577884	1	147.2968	-0.0613768	-1.525008E-006	0.0001154	10	0.0006813	0.1003668	0
	60	127	0.997765	147.344	-0.1586182	1	147.3441	-0.0616798	-1.337759E-006	0.0001155	10	0.0006797	0.1001545	0
	61	133	0.7927448	147.3897	-0.1533501	1	147.3898	-0.0596128	-1.435701E-006	0.0001153	10	0.0006789	0.1000679	0
	62	140	0.6290258	147.4233	-0.1518099	1	147.4234	-0.0590006	-1.628969E-006	0.0001151	10	0.0006785	0.1000316	0
	63	149	0.4988825	147.436	-0.1445098	1	147.4361	-0.0561586	-1.68079E-006	0.0001163	10	0.0006784	0.1000163	0
	64	159	0.3985969	147.4274	-0.1417056	1	147.4275	-0.055072	-1.774335E-006	0.0001157	10	0.0006783	0.1000079	0
