EXPLAIN
TAG	EISPOT
TITLE	LABEL	Potentiostatic EIS	Test Identifier
DATE	LABEL	2025/12/24	Date
TIME	LABEL	2:22:26	Time
NOTES	NOTES	1	Notes...
	
PSTAT	PSTAT	IFC1000-11123	Potentiostat
VDC	POTEN	0.00000E+000	T	DC Voltage (V)
FREQINIT	QUANT	1.00000E+006	Initial Freq. (Hz)
FREQFINAL	QUANT	5.00000E-001	Final Freq. (Hz)
PTSPERDEC	QUANT	1.00000E+001	Points/decade
VAC	QUANT	1.00000E+002	AC Voltage (mV rms)
AREA	QUANT	7.85000E-001	Sample Area (cm^2)
SPEED	SELECTOR	1	Optimize for:
DRIFTCOR	SELECTOR	0	Drift Correction
THD	SELECTOR	0	THD
ZGUESS	QUANT	1.00000E+002	Estimated Z (ohms)
EOC	QUANT	-9.267929E-006	Open Circuit (V)
SEQUENCER	TOGGLE	TRUE	Run as Sequence
PSTATMODEL	IQUANT	48	Pstat Model
PSTATSECTION	LABEL	IFC1000-11123	Pstat Section
PSTATSERIALNO	LABEL	11123	Pstat Serial Number
CTRLMODE	IQUANT	1	Control Mode
ELECTROMETER	IQUANT	0	RE=0 or CS=1
IESTAB	IQUANT	0	I/E Stability
CASPEED	IQUANT	3	Control Amp Speed
CONVENTION	IQUANT	1	Current Convention
ICHRANGE	IQUANT	2	Ich Range
ICHRANGEMODE	TOGGLE	F	Ich Auto Range
ICHOFFSETENABLE	TOGGLE	T	Ich Offset Enable
ICHOFFSET	QUANT	0	Ich Offset (V)
ICHFILTER	IQUANT	4	Ich Filter
VCHRANGE	IQUANT	2	Vch Range
VCHRANGEMODE	TOGGLE	F	Vch Auto Range
VCHOFFSETENABLE	TOGGLE	T	Vch Offset Enable
VCHOFFSET	QUANT	0	Vch Offset (V)
VCHFILTER	IQUANT	4	Vch Filter
IERANGELOWERLIMIT	IQUANT	4	I/E Range Lower Limit
IERANGEMODE	TOGGLE	F	I/E AutoRange
IERANGE	IQUANT	11	I/E Range
ACHSELECT	IQUANT	0	Ach Select
ACHRANGE	IQUANT	2	Ach Range
ACHOFFSETENABLE	TOGGLE	F	Ach Offset Enable
ACHOFFSET	QUANT	0	Ach Offset (V)
ACHFILTER	IQUANT	1	Ach Filter
SENSECABLEID	IQUANT	14	Sense Cable ID
PWRCABLEID	IQUANT	14	Power Cable ID
DCCALDATE	LABEL	5/23/2025	DC Calibration Date
ACCALDATE	LABEL	4/29/2023	AC Calibration Date
FRAMEWORKVERSION	LABEL	7.10.0	Framework Version
INSTRUMENTVERSION	LABEL	4.72	Instrument Version
COMMVERSION	LABEL	3.10	Communications Version
CPUPLDVERSION	LABEL	1.10	CPU PLD Version
CTRLPLDVERSION	LABEL	0.00	CTRL PLD Version
PSTATPLDVERSION	LABEL	0.00	PSTAT PLD Version
ZCURVE	TABLE
	Pt	Time	Freq	Zreal	Zimag	Zsig	Zmod	Zphz	Idc	Vdc	IERange	Imod	Vmod	Temp
	#	s	Hz	ohm	ohm	V	ohm	°	A	V	#	A	V	°C
	0	4	1000020	122.6729	-3.453854	1	122.7215	-1.612736	-1.273056E-005	0.00027	10	0.000849	0.1000346	0
	1	5	794355.5	123.8678	-4.55161	1	123.9514	-2.104428	-1.257288E-005	0.0002694	10	0.001252	0.1505267	0
	2	7	630996.1	125.1187	-5.483604	1	125.2388	-2.50951	-1.295861E-005	0.0002654	10	0.0011111	0.135991	0
	3	9	501269.5	126.4331	-6.289433	1	126.5894	-2.84784	-1.313306E-005	0.0002541	10	0.0010289	0.1279683	0
	4	11	398144.5	127.8056	-6.962991	1	127.9952	-3.118454	-1.322689E-005	0.0002496	10	0.0009761	0.1232074	0
	5	12	316230.5	129.212	-7.497751	1	129.4293	-3.320964	-1.336333E-005	0.0002399	10	0.0009283	0.118799	0
	6	14	251191.4	130.6768	-7.935249	1	130.9175	-3.474977	-1.351519E-005	0.0002276	10	0.0008839	0.1146526	0
	7	16	199628.9	132.1908	-8.22674	1	132.4465	-3.561143	-1.371574E-005	0.0002082	10	0.0008461	0.1112195	0
	8	18	158496.1	133.7379	-8.379876	1	134.0002	-3.585406	-1.36124E-005	0.0002265	10	0.0008138	0.1083848	0
	9	20	125918	135.2811	-8.406145	1	135.542	-3.555695	-1.370978E-005	0.0002158	10	0.0007827	0.1055886	0
	10	21	100019.5	136.8297	-8.252932	1	137.0784	-3.451633	-2.526889E-006	0.0001001	10	0.0007399	0.101007	0
	11	23	79511.72	138.2675	-7.998176	1	138.4987	-3.310623	-2.476723E-006	9.275935E-005	10	0.0007543	0.1041967	0
	12	25	63105.47	139.6757	-7.600827	1	139.8824	-3.11483	-2.533359E-006	9.34531E-005	10	0.0007322	0.1022509	0
	13	27	50214.84	140.9419	-7.073854	1	141.1193	-2.873255	-2.589184E-006	9.170908E-005	10	0.0007179	0.1011926	0
	14	29	39902.34	142.0851	-6.470383	1	142.2323	-2.60738	-2.525551E-006	9.071594E-005	10	0.0007082	0.1006591	0
	15	30	31699.22	143.0639	-5.804828	1	143.1816	-2.323506	-2.400161E-006	8.941867E-005	10	0.0007014	0.1003824	0
	16	32	25136.72	143.8877	-5.111755	1	143.9785	-2.034634	-2.351097E-006	8.981468E-005	10	0.0006963	0.1002178	0
	17	34	19980.47	144.5588	-4.437999	1	144.6269	-1.758446	-2.340767E-006	8.922617E-005	10	0.0006924	0.1001225	0
	18	36	15878.91	145.0866	-3.80546	1	145.1365	-1.50246	-2.15964E-006	9.141857E-005	10	0.0006896	0.1000676	0
	19	37	12597.66	145.5047	-3.231688	1	145.5406	-1.272341	-2.270426E-006	9.168254E-005	10	0.0006875	0.1000461	0
	20	39	10019.53	145.8308	-2.724022	1	145.8563	-1.070122	-2.190155E-006	9.118445E-005	10	0.0006857	0.1000057	0
	21	41	7928.241	146.0756	-2.281122	1	146.0934	-0.8946607	-2.184511E-007	0.000147	10	0.0006847	0.1000218	0
	22	43	6307.871	146.2668	-1.904389	1	146.2791	-0.7459474	-1.460246E-007	0.0001497	10	0.0006836	0.0999963	0
	23	44	5034.722	146.3992	-1.606149	1	146.408	-0.6285681	-1.764972E-006	0.0001205	10	0.0006648	0.0970908	0
	24	46	3993.056	146.5059	-1.340569	1	146.512	-0.5242574	-1.823287E-006	0.00012	10	0.0006954	0.1017321	0
	25	48	3144.055	146.5946	-1.11786	1	146.5989	-0.4369015	-1.830198E-006	0.0001179	10	0.0006878	0.1007404	0
	26	50	2519.531	146.6609	-0.951708	1	146.664	-0.371797	-1.849708E-006	0.0001191	10	0.000684	0.1002718	0
	27	51	2000.762	146.7179	-0.8120615	1	146.7202	-0.3171203	-1.817345E-006	0.0001188	10	0.0006828	0.1001434	0
	28	53	1580.669	146.7623	-0.700414	1	146.764	-0.2734384	-1.84695E-006	0.000117	10	0.0006817	0.1000339	0
	29	55	1253.634	146.8023	-0.612094	1	146.8036	-0.2388941	-1.794784E-006	0.0001194	10	0.0006814	0.1000193	0
	30	57	1000.702	146.8409	-0.5468331	1	146.8419	-0.2133676	-1.888721E-006	0.0001191	10	0.000681	0.0999877	0
	31	58	790.0281	146.8851	-0.4951833	1	146.8859	-0.1931565	-1.908481E-006	0.0001185	10	0.0006809	0.1000139	0
	32	60	628.811	146.9304	-0.4564134	1	146.9311	-0.1779786	-1.906218E-006	0.0001201	10	0.0006804	0.0999726	0
	33	62	502.2321	146.9871	-0.4353416	1	146.9877	-0.1696963	-1.971759E-006	0.0001159	10	0.0006538	0.0954429	0
	34	63	400.1524	147.0302	-0.4045566	1	147.0307	-0.1576501	-2.030366E-006	0.0001152	10	0.0007013	0.1026373	0
	35	65	315.5048	147.0764	-0.3842187	1	147.0769	-0.1496777	-2.057722E-006	0.000115	10	0.0006897	0.1011316	0
	36	67	252.0161	147.1168	-0.3682342	1	147.1172	-0.1434114	-2.096519E-006	0.0001149	10	0.0006835	0.100367	0
	37	68	200.3205	147.1623	-0.3521845	1	147.1627	-0.1371183	-2.179895E-006	0.0001148	10	0.0006807	0.1000531	0
	38	70	158.0056	147.2137	-0.340553	1	147.2141	-0.1325434	-2.228415E-006	0.0001126	10	0.0006776	0.0996747	0
	39	72	125.558	147.2625	-0.3271974	1	147.2629	-0.1273032	-2.236729E-006	0.0001157	10	0.0006733	0.0991035	0
	40	74	99.734	147.3153	-0.3138015	1	147.3156	-0.1220476	-2.165334E-006	0.0001141	10	0.0006647	0.0978933	0
	41	75	79.44915	147.3627	-0.2855698	1	147.363	-0.1110316	-2.205321E-006	0.000115	10	0.0006982	0.1028735	0
	42	77	62.91946	147.4145	-0.2838961	1	147.4147	-0.1103421	-2.17212E-006	0.000111	10	0.0006785	0.1000083	0
	43	79	49.86702	147.4577	-0.2663438	1	147.4579	-0.1034897	-2.093098E-006	0.000115	10	0.0006784	0.1000289	0
	44	81	38.42213	147.5005	-0.246489	1	147.5007	-0.0957473	-2.114157E-006	0.0001146	10	0.000678	0.1000041	0
	45	82	31.25	147.5352	-0.2459369	1	147.5354	-0.0955103	-2.020081E-006	0.0001147	10	0.0006778	0.1000004	0
	46	84	24.93351	147.573	-0.2320986	1	147.5732	-0.0901131	-1.961374E-006	0.0001152	10	0.0006776	0.0999992	0
	47	86	20.03205	147.607	-0.2189812	1	147.6071	-0.0850006	-2.003352E-006	0.0001103	10	0.0006775	0.1000001	0
	48	88	15.625	147.6417	-0.2112091	1	147.6418	-0.0819645	-1.903707E-006	0.0001129	10	0.0006773	0.0999994	0
	49	90	12.46675	147.6712	-0.2041468	1	147.6714	-0.079208	-1.740113E-006	0.0001138	10	0.0006772	0.0999997	0
	50	92	9.9734	147.6997	-0.1946825	1	147.6998	-0.0755214	-1.713629E-006	0.000115	10	0.000677	0.0999996	0
	51	94	7.971939	147.717	-0.188897	1	147.7171	-0.0732684	-1.752751E-006	0.0001145	10	0.000677	0.0999997	0
	52	97	6.351626	147.7372	-0.1843489	1	147.7374	-0.0714945	-1.735018E-006	0.0001148	10	0.0006769	0.1000002	0
	53	99	5.013369	147.7457	-0.1794499	1	147.7458	-0.0695906	-1.624327E-006	0.0001125	10	0.0006768	0.1	0
	54	102	3.985969	147.7585	-0.1749236	1	147.7586	-0.0678294	-1.425192E-006	0.0001132	10	0.0006768	0.1000004	0
	55	105	3.175813	147.7666	-0.1767625	1	147.7667	-0.0685388	-1.427192E-006	0.0001137	10	0.0006767	0.0999992	0
	56	108	2.516103	147.7844	-0.1496633	1	147.7845	-0.0580242	-1.360634E-006	0.0001161	10	0.0006519	0.0964874	0
	57	112	1.99553	147.7827	-0.1504653	1	147.7827	-0.0583358	-1.373526E-006	0.0001168	10	0.0006902	0.1020729	0
	58	116	1.587906	147.824	-0.1552716	1	147.8241	-0.0601824	-1.136705E-006	0.0001179	10	0.000682	0.1008564	0
	59	121	1.258052	147.8378	-0.1565779	1	147.8379	-0.0606831	-9.646897E-007	0.0001151	10	0.0006788	0.1003666	0
	60	127	0.997765	147.853	-0.1590358	1	147.8531	-0.0616293	-1.200389E-006	0.0001155	10	0.0006773	0.1001556	0
	61	133	0.7927448	147.8754	-0.1550015	1	147.8754	-0.0600568	-1.295006E-006	0.0001159	10	0.0006767	0.100067	0
	62	140	0.6290258	147.8496	-0.1492672	1	147.8497	-0.0578451	-1.332746E-006	0.0001155	10	0.0006766	0.100032	0
	63	149	0.4988825	147.8469	-0.1471645	1	147.847	-0.0570313	-1.165036E-006	0.0001149	10	0.0006765	0.1000165	0
	64	158	0.3985969	147.8719	-0.139712	1	147.872	-0.054134	-1.20632E-006	0.0001165	10	0.0006763	0.1000074	0
