EXPLAIN
TAG	EISPOT
TITLE	LABEL	Potentiostatic EIS	Test Identifier
DATE	LABEL	2025/12/24	Date
TIME	LABEL	3:47:28	Time
NOTES	NOTES	1	Notes...
	
PSTAT	PSTAT	IFC1000-11123	Potentiostat
VDC	POTEN	0.00000E+000	T	DC Voltage (V)
FREQINIT	QUANT	1.00000E+006	Initial Freq. (Hz)
FREQFINAL	QUANT	5.00000E-001	Final Freq. (Hz)
PTSPERDEC	QUANT	1.00000E+001	Points/decade
VAC	QUANT	1.00000E+002	AC Voltage (mV rms)
AREA	QUANT	7.85000E-001	Sample Area (cm^2)
SPEED	SELECTOR	1	Optimize for:
DRIFTCOR	SELECTOR	0	Drift Correction
THD	SELECTOR	0	THD
ZGUESS	QUANT	1.00000E+002	Estimated Z (ohms)
EOC	QUANT	-8.442517E-006	Open Circuit (V)
SEQUENCER	TOGGLE	TRUE	Run as Sequence
PSTATMODEL	IQUANT	48	Pstat Model
PSTATSECTION	LABEL	IFC1000-11123	Pstat Section
PSTATSERIALNO	LABEL	11123	Pstat Serial Number
CTRLMODE	IQUANT	1	Control Mode
ELECTROMETER	IQUANT	0	RE=0 or CS=1
IESTAB	IQUANT	0	I/E Stability
CASPEED	IQUANT	3	Control Amp Speed
CONVENTION	IQUANT	1	Current Convention
ICHRANGE	IQUANT	2	Ich Range
ICHRANGEMODE	TOGGLE	F	Ich Auto Range
ICHOFFSETENABLE	TOGGLE	T	Ich Offset Enable
ICHOFFSET	QUANT	0	Ich Offset (V)
ICHFILTER	IQUANT	4	Ich Filter
VCHRANGE	IQUANT	2	Vch Range
VCHRANGEMODE	TOGGLE	F	Vch Auto Range
VCHOFFSETENABLE	TOGGLE	T	Vch Offset Enable
VCHOFFSET	QUANT	0	Vch Offset (V)
VCHFILTER	IQUANT	4	Vch Filter
IERANGELOWERLIMIT	IQUANT	4	I/E Range Lower Limit
IERANGEMODE	TOGGLE	F	I/E AutoRange
IERANGE	IQUANT	11	I/E Range
ACHSELECT	IQUANT	0	Ach Select
ACHRANGE	IQUANT	2	Ach Range
ACHOFFSETENABLE	TOGGLE	F	Ach Offset Enable
ACHOFFSET	QUANT	0	Ach Offset (V)
ACHFILTER	IQUANT	1	Ach Filter
SENSECABLEID	IQUANT	14	Sense Cable ID
PWRCABLEID	IQUANT	14	Power Cable ID
DCCALDATE	LABEL	5/23/2025	DC Calibration Date
ACCALDATE	LABEL	4/29/2023	AC Calibration Date
FRAMEWORKVERSION	LABEL	7.10.0	Framework Version
INSTRUMENTVERSION	LABEL	4.72	Instrument Version
COMMVERSION	LABEL	3.10	Communications Version
CPUPLDVERSION	LABEL	1.10	CPU PLD Version
CTRLPLDVERSION	LABEL	0.00	CTRL PLD Version
PSTATPLDVERSION	LABEL	0.00	PSTAT PLD Version
ZCURVE	TABLE
	Pt	Time	Freq	Zreal	Zimag	Zsig	Zmod	Zphz	Idc	Vdc	IERange	Imod	Vmod	Temp
	#	s	Hz	ohm	ohm	V	ohm	°	A	V	#	A	V	°C
	0	4	1000020	123.2347	-3.653289	1	123.2888	-1.698034	-1.255309E-005	0.0002585	10	0.000844	0.0999031	0
	1	5	794355.5	124.4468	-4.743407	1	124.5372	-2.182826	-1.237292E-005	0.0002624	10	0.0012468	0.1506091	0
	2	7	630996.1	125.7236	-5.647796	1	125.8504	-2.572129	-1.264657E-005	0.0002743	10	0.0011046	0.1358506	0
	3	9	501269.5	127.0513	-6.452335	1	127.2151	-2.907284	-1.289573E-005	0.0002559	10	0.0010245	0.1280405	0
	4	11	398144.5	128.451	-7.123714	1	128.6484	-3.174294	-1.30474E-005	0.0002543	10	0.000969	0.1229257	0
	5	12	316230.5	129.8751	-7.657278	1	130.1006	-3.374184	-1.316411E-005	0.0002344	10	0.0009239	0.118852	0
	6	14	251191.4	131.3469	-8.070059	1	131.5945	-3.51588	-1.313519E-005	0.0002371	10	0.0008831	0.1151455	0
	7	16	199628.9	132.8801	-8.391665	1	133.1448	-3.613554	-1.329613E-005	0.0002166	10	0.0008381	0.1107411	0
	8	18	158496.1	134.4325	-8.536963	1	134.7033	-3.633616	-1.314659E-005	0.000228	10	0.0008105	0.1085126	0
	9	20	125918	136.014	-8.559308	1	136.283	-3.600853	-1.326975E-005	0.0002165	10	0.0007786	0.1056	0
	10	21	100019.5	137.5686	-8.43436	1	137.8269	-3.508424	-2.050855E-006	0.0001007	10	0.0007357	0.1009874	0
	11	23	79511.72	139.0393	-8.190207	1	139.2803	-3.371153	-2.084839E-006	0.0000975	10	0.0007501	0.1042068	0
	12	25	63105.47	140.4831	-7.800179	1	140.6995	-3.178025	-2.16301E-006	9.312457E-005	10	0.000728	0.1022564	0
	13	27	50214.84	141.7929	-7.282086	1	141.9798	-2.939967	-2.182479E-006	9.27425E-005	10	0.0007133	0.1011675	0
	14	29	39902.34	142.9721	-6.673508	1	143.1278	-2.672454	-2.2056E-006	9.008334E-005	10	0.000704	0.1006905	0
	15	30	31699.22	143.9842	-5.995763	1	144.1089	-2.384523	-2.220579E-006	8.960767E-005	10	0.0006967	0.1003506	0
	16	32	25136.72	144.8436	-5.289355	1	144.9401	-2.091381	-2.242287E-006	8.934626E-005	10	0.0006917	0.1002209	0
	17	34	19980.47	145.5349	-4.607023	1	145.6078	-1.813138	-2.169125E-006	8.992176E-005	10	0.0006877	0.1001215	0
	18	36	15878.91	146.0861	-3.956249	1	146.1396	-1.551284	-2.183362E-006	9.015613E-005	10	0.0006848	0.1000655	0
	19	37	12597.66	146.5189	-3.363254	1	146.5575	-1.314959	-2.195245E-006	9.017787E-005	10	0.0006827	0.1000439	0
	20	39	10019.53	146.8484	-2.843897	1	146.8759	-1.109464	-2.160037E-006	9.100727E-005	10	0.0006809	0.100005	0
	21	41	7928.241	147.1041	-2.377352	1	147.1233	-0.9258776	-3.187592E-007	0.000147	10	0.0006799	0.1000205	0
	22	43	6307.871	147.2971	-1.987057	1	147.3105	-0.7728806	-3.703251E-007	0.0001455	10	0.0006791	0.1000313	0
	23	44	5034.722	147.4379	-1.673641	1	147.4474	-0.6503649	-1.932416E-006	0.0001172	10	0.0006599	0.0970607	0
	24	46	3993.056	147.5547	-1.398491	1	147.5614	-0.5430204	-1.939291E-006	0.0001179	10	0.0006906	0.1017623	0
	25	48	3144.055	147.6504	-1.165123	1	147.655	-0.4521169	-1.948194E-006	0.000116	10	0.0006826	0.1007098	0
	26	50	2519.531	147.7226	-0.990796	1	147.7259	-0.384285	-1.949747E-006	0.0001181	10	0.0006793	0.1003022	0
	27	51	2000.762	147.7833	-0.8435159	1	147.7857	-0.3270287	-1.98393E-006	0.0001179	10	0.0006776	0.1001119	0
	28	53	1580.669	147.8311	-0.7244604	1	147.8329	-0.2807811	-2.051314E-006	0.0001172	10	0.0006768	0.1000353	0
	29	55	1253.634	147.8779	-0.6349241	1	147.8793	-0.2460019	-2.012981E-006	0.0001183	10	0.0006764	0.100018	0
	30	57	1000.702	147.9179	-0.5669456	1	147.919	-0.2196045	-2.057999E-006	0.0001188	10	0.0006762	0.1000207	0
	31	58	790.0281	147.9616	-0.5121675	1	147.9625	-0.198328	-2.083647E-006	0.0001179	10	0.0006758	0.0999823	0
	32	60	628.811	148.008	-0.471282	1	148.0087	-0.1824387	-2.048653E-006	0.0001163	10	0.0006757	0.1000021	0
	33	62	502.2321	148.0661	-0.4469671	1	148.0667	-0.1729583	-2.097251E-006	0.0001148	10	0.0006488	0.0954116	0
	34	63	400.1524	148.109	-0.417401	1	148.1096	-0.1614707	-2.07615E-006	0.0001156	10	0.0006962	0.1026376	0
	35	65	315.5048	148.1556	-0.3947352	1	148.1561	-0.1526544	-2.093873E-006	0.0001151	10	0.0006846	0.1011312	0
	36	67	252.0161	148.1969	-0.3768728	1	148.1974	-0.145706	-2.091728E-006	0.0001115	10	0.0006788	0.1003975	0
	37	68	200.3205	148.247	-0.3640574	1	148.2474	-0.1407038	-2.096667E-006	0.0001124	10	0.0006755	0.1000221	0
	38	70	158.0056	148.2969	-0.3495503	1	148.2973	-0.1350515	-2.121518E-006	0.0001131	10	0.0006727	0.0996757	0
	39	72	125.558	148.3485	-0.3368026	1	148.3489	-0.1300811	-2.038254E-006	0.0001151	10	0.0006686	0.0991336	0
	40	74	99.734	148.3981	-0.3239328	1	148.3985	-0.1250687	-2.034023E-006	0.0001127	10	0.0006597	0.0978633	0
	41	75	79.44915	148.4368	-0.2917493	1	148.4371	-0.1126135	-2.09259E-006	0.0001131	10	0.0006932	0.1028808	0
	42	77	62.91946	148.486	-0.2916782	1	148.4863	-0.1125488	-1.949806E-006	0.0001091	10	0.0006736	0.1000108	0
	43	79	49.86702	148.5259	-0.2740421	1	148.5261	-0.1057152	-1.799041E-006	0.0001121	10	0.0006735	0.1000282	0
	44	81	38.42213	148.5686	-0.2528631	1	148.5688	-0.0975171	-1.719944E-006	0.0001128	10	0.0006731	0.1000037	0
	45	82	31.25	148.5999	-0.2527022	1	148.6001	-0.0974345	-1.68505E-006	0.0001124	10	0.000673	0.1000009	0
	46	84	24.93351	148.6231	-0.2365312	1	148.6233	-0.0911852	-1.731884E-006	0.0001133	10	0.0006728	0.0999974	0
	47	86	20.03205	148.6417	-0.223779	1	148.6418	-0.0862583	-1.821817E-006	0.0001103	10	0.0006728	0.1000017	0
	48	88	15.625	148.6566	-0.214212	1	148.6567	-0.0825624	-1.720082E-006	0.0001129	10	0.0006727	0.0999993	0
	49	90	12.46675	148.667	-0.2050531	1	148.6671	-0.0790268	-1.625507E-006	0.0001126	10	0.0006726	0.0999994	0
	50	92	9.9734	148.6719	-0.1960403	1	148.672	-0.0755508	-1.655513E-006	0.0001124	10	0.0006726	0.0999998	0
	51	94	7.971939	148.6752	-0.191681	1	148.6753	-0.0738691	-1.660381E-006	0.000114	10	0.0006726	0.0999998	0
	52	97	6.351626	148.6785	-0.183296	1	148.6786	-0.0706362	-1.674979E-006	0.0001122	10	0.0006726	0.0999993	0
	53	99	5.013369	148.6868	-0.1796947	1	148.6869	-0.0692445	-1.827413E-006	0.0001103	10	0.0006726	0.0999998	0
	54	102	3.985969	148.6779	-0.1755089	1	148.6781	-0.0676356	-1.849523E-006	0.000113	10	0.0006726	0.1000001	0
	55	105	3.175813	148.6539	-0.1737927	1	148.654	-0.066985	-1.928425E-006	0.000113	10	0.0006727	0.1000003	0
	56	108	2.516103	148.6346	-0.1497101	1	148.6347	-0.0577103	-1.86837E-006	0.0001153	10	0.0006482	0.0964868	0
	57	112	1.99553	148.5974	-0.1504453	1	148.5975	-0.0580082	-1.821192E-006	0.0001147	10	0.0006864	0.1020731	0
	58	116	1.587906	148.5715	-0.1552507	1	148.5715	-0.0598716	-1.764682E-006	0.0001171	10	0.0006786	0.100857	0
	59	121	1.258052	148.5592	-0.1543319	1	148.5593	-0.0595221	-1.789658E-006	0.0001154	10	0.0006755	0.100366	0
	60	127	0.997765	148.5875	-0.157204	1	148.5876	-0.0606183	-1.796186E-006	0.0001164	10	0.000674	0.1001552	0
	61	133	0.7927448	148.5997	-0.1534517	1	148.5998	-0.0591665	-1.804382E-006	0.0001162	10	0.0006734	0.100068	0
	62	140	0.6290258	148.5806	-0.1483374	1	148.5806	-0.057202	-1.611711E-006	0.0001159	10	0.0006732	0.1000323	0
	63	148	0.4988825	148.5602	-0.1474835	1	148.5603	-0.0568805	-1.636101E-006	0.0001146	10	0.0006732	0.1000151	0
	64	158	0.3985969	148.5231	-0.1380402	1	148.5232	-0.0532518	-1.806078E-006	0.0001158	10	0.0006733	0.1000085	0
