EXPLAIN
TAG	EISPOT
TITLE	LABEL	Potentiostatic EIS	Test Identifier
DATE	LABEL	2025/12/23	Date
TIME	LABEL	21:10:38	Time
NOTES	NOTES	1	Notes...
	
PSTAT	PSTAT	IFC1000-11123	Potentiostat
VDC	POTEN	0.00000E+000	T	DC Voltage (V)
FREQINIT	QUANT	1.00000E+006	Initial Freq. (Hz)
FREQFINAL	QUANT	5.00000E-001	Final Freq. (Hz)
PTSPERDEC	QUANT	1.00000E+001	Points/decade
VAC	QUANT	1.00000E+002	AC Voltage (mV rms)
AREA	QUANT	7.85000E-001	Sample Area (cm^2)
SPEED	SELECTOR	1	Optimize for:
DRIFTCOR	SELECTOR	0	Drift Correction
THD	SELECTOR	0	THD
ZGUESS	QUANT	1.00000E+002	Estimated Z (ohms)
EOC	QUANT	-1.017337E-005	Open Circuit (V)
SEQUENCER	TOGGLE	TRUE	Run as Sequence
PSTATMODEL	IQUANT	48	Pstat Model
PSTATSECTION	LABEL	IFC1000-11123	Pstat Section
PSTATSERIALNO	LABEL	11123	Pstat Serial Number
CTRLMODE	IQUANT	1	Control Mode
ELECTROMETER	IQUANT	0	RE=0 or CS=1
IESTAB	IQUANT	0	I/E Stability
CASPEED	IQUANT	3	Control Amp Speed
CONVENTION	IQUANT	1	Current Convention
ICHRANGE	IQUANT	2	Ich Range
ICHRANGEMODE	TOGGLE	F	Ich Auto Range
ICHOFFSETENABLE	TOGGLE	T	Ich Offset Enable
ICHOFFSET	QUANT	0	Ich Offset (V)
ICHFILTER	IQUANT	4	Ich Filter
VCHRANGE	IQUANT	2	Vch Range
VCHRANGEMODE	TOGGLE	F	Vch Auto Range
VCHOFFSETENABLE	TOGGLE	T	Vch Offset Enable
VCHOFFSET	QUANT	0	Vch Offset (V)
VCHFILTER	IQUANT	4	Vch Filter
IERANGELOWERLIMIT	IQUANT	4	I/E Range Lower Limit
IERANGEMODE	TOGGLE	F	I/E AutoRange
IERANGE	IQUANT	11	I/E Range
ACHSELECT	IQUANT	0	Ach Select
ACHRANGE	IQUANT	2	Ach Range
ACHOFFSETENABLE	TOGGLE	F	Ach Offset Enable
ACHOFFSET	QUANT	0	Ach Offset (V)
ACHFILTER	IQUANT	1	Ach Filter
SENSECABLEID	IQUANT	14	Sense Cable ID
PWRCABLEID	IQUANT	14	Power Cable ID
DCCALDATE	LABEL	5/23/2025	DC Calibration Date
ACCALDATE	LABEL	4/29/2023	AC Calibration Date
FRAMEWORKVERSION	LABEL	7.10.0	Framework Version
INSTRUMENTVERSION	LABEL	4.72	Instrument Version
COMMVERSION	LABEL	3.10	Communications Version
CPUPLDVERSION	LABEL	1.10	CPU PLD Version
CTRLPLDVERSION	LABEL	0.00	CTRL PLD Version
PSTATPLDVERSION	LABEL	0.00	PSTAT PLD Version
ZCURVE	TABLE
	Pt	Time	Freq	Zreal	Zimag	Zsig	Zmod	Zphz	Idc	Vdc	IERange	Imod	Vmod	Temp
	#	s	Hz	ohm	ohm	V	ohm	°	A	V	#	A	V	°C
	0	4	1000020	121.4756	-2.596179	1	121.5034	-1.22434	-1.162287E-005	0.000267	10	0.0008572	0.0999969	0
	1	5	794355.5	122.5101	-3.75783	1	122.5677	-1.75692	-1.146638E-005	0.0002668	10	0.0012661	0.1505283	0
	2	7	630996.1	123.6552	-4.740901	1	123.7461	-2.195626	-1.183103E-005	0.0002672	10	0.0011266	0.1362483	0
	3	9	501269.5	124.8844	-5.60562	1	125.0101	-2.570081	-1.211744E-005	0.0002522	10	0.001043	0.1280971	0
	4	11	398144.5	126.1858	-6.327714	1	126.3443	-2.87075	-1.224725E-005	0.0002487	10	0.0009878	0.1230686	0
	5	13	316230.5	127.5409	-6.913154	1	127.7282	-3.102591	-1.246667E-005	0.0002372	10	0.0009398	0.1186875	0
	6	14	251191.4	128.9724	-7.318809	1	129.1799	-3.247886	-1.275145E-005	0.0002319	10	0.0008988	0.1150357	0
	7	16	199628.9	130.4278	-7.59005	1	130.6485	-3.330485	-1.285431E-005	0.0002087	10	0.0008574	0.1111683	0
	8	18	158496.1	131.892	-7.708341	1	132.1171	-3.34481	-1.287317E-005	0.000223	10	0.0008238	0.1081699	0
	9	20	125918	133.364	-7.667436	1	133.5842	-3.290458	-1.301549E-005	0.0002176	10	0.0007943	0.1055997	0
	10	21	100019.5	134.7819	-7.461922	1	134.9883	-3.168828	-1.848278E-006	0.0000991	10	0.0007513	0.1009985	0
	11	23	79511.72	136.0907	-7.147308	1	136.2783	-3.006338	-1.860175E-006	9.486853E-005	10	0.0007668	0.1042239	0
	12	25	63105.47	137.337	-6.700333	1	137.5003	-2.793105	-1.873685E-006	9.124714E-005	10	0.0007449	0.1022508	0
	13	27	50214.84	138.431	-6.158774	1	138.5679	-2.547401	-1.910063E-006	9.041792E-005	10	0.0007311	0.101198	0
	14	29	39902.34	139.3962	-5.55349	1	139.5068	-2.281435	-1.961478E-006	8.803292E-005	10	0.0007221	0.100669	0
	15	30	31699.22	140.2093	-4.912175	1	140.2954	-2.006513	-1.993933E-006	8.926282E-005	10	0.0007157	0.1003629	0
	16	32	25136.72	140.8787	-4.283425	1	140.9438	-1.741545	-2.028416E-006	9.008826E-005	10	0.0007114	0.100236	0
	17	34	19980.47	141.3958	-3.679127	1	141.4437	-1.490503	-2.140094E-006	8.861267E-005	10	0.0007079	0.1001113	0
	18	36	15878.91	141.8034	-3.133058	1	141.838	-1.265708	-2.050815E-006	8.960089E-005	10	0.0007055	0.1000554	0
	19	37	12597.66	142.1313	-2.639613	1	142.1558	-1.063955	-2.039777E-006	8.655875E-005	10	0.000704	0.1000691	0
	20	39	10019.53	142.366	-2.20578	1	142.3831	-0.8876542	-1.977151E-006	8.782052E-005	10	0.0007024	0.099999	0
	21	41	7928.241	142.563	-1.843022	1	142.5749	-0.7406656	-1.96826E-007	0.0001403	10	0.0007017	0.1000455	0
	22	43	6307.871	142.7065	-1.538722	1	142.7148	-0.6177638	-1.914977E-007	0.0001436	10	0.0007006	0.0999893	0
	23	44	5034.722	142.8098	-1.294422	1	142.8157	-0.5193123	-1.776543E-006	0.0001165	10	0.0006813	0.0970533	0
	24	46	3993.056	142.8925	-1.0834	1	142.8967	-0.4344038	-1.793705E-006	0.0001168	10	0.0007133	0.1017871	0
	25	48	3144.055	142.9585	-0.9063694	1	142.9614	-0.3632554	-1.806921E-006	0.0001177	10	0.0007052	0.1007343	0
	26	50	2519.531	143.0069	-0.7745923	1	143.009	-0.3103376	-1.807144E-006	0.0001149	10	0.0007015	0.1002673	0
	27	51	2000.762	143.0462	-0.6621063	1	143.0477	-0.2651984	-1.7928E-006	0.0001152	10	0.0007	0.1001063	0
	28	53	1580.669	143.0812	-0.5726312	1	143.0824	-0.2293046	-1.800131E-006	0.0001169	10	0.0006995	0.1000602	0
	29	55	1253.634	143.1292	-0.5025157	1	143.1301	-0.2011603	-1.787997E-006	0.0001169	10	0.0006988	0.1000134	0
	30	57	1000.702	143.1717	-0.4485883	1	143.1724	-0.1795196	-1.83743E-006	0.0001182	10	0.0006986	0.1000144	0
	31	58	790.0281	143.2125	-0.4047615	1	143.2131	-0.1619346	-1.788787E-006	0.0001182	10	0.0006981	0.0999758	0
	32	60	628.811	143.255	-0.3692112	1	143.2555	-0.1476681	-1.841714E-006	0.0001167	10	0.000698	0.0999944	0
	33	62	502.2321	143.3032	-0.3475333	1	143.3037	-0.1389512	-1.914242E-006	0.000114	10	0.0006705	0.0954356	0
	34	63	400.1524	143.3273	-0.3179836	1	143.3277	-0.1271152	-1.981095E-006	0.0001155	10	0.0007194	0.1026293	0
	35	65	315.5048	143.3507	-0.296535	1	143.351	-0.1185218	-1.947851E-006	0.0001153	10	0.0007075	0.1011233	0
	36	67	252.0161	143.3784	-0.2796544	1	143.3787	-0.1117532	-1.939048E-006	0.0001116	10	0.0007015	0.1003886	0
	37	69	200.3205	143.4133	-0.2640215	1	143.4135	-0.1054805	-1.94702E-006	0.000113	10	0.0006984	0.1000422	0
	38	70	158.0056	143.4459	-0.2509686	1	143.4462	-0.1002428	-1.935137E-006	0.0001115	10	0.0006953	0.0996639	0
	39	72	125.558	143.4641	-0.2376697	1	143.4643	-0.0949189	-1.875607E-006	0.0001166	10	0.0006912	0.0991172	0
	40	74	99.734	143.4751	-0.2295383	1	143.4753	-0.0916645	-1.906268E-006	0.0001151	10	0.0006824	0.0978715	0
	41	75	79.44915	143.501	-0.2044651	1	143.5012	-0.0816369	-2.044001E-006	0.0001116	10	0.0007172	0.1029017	0
	42	77	62.91946	143.5227	-0.2112071	1	143.5228	-0.0843161	-2.036209E-006	0.00011	10	0.0006969	0.1000136	0
	43	79	49.86702	143.5479	-0.2024119	1	143.5481	-0.0807907	-2.038207E-006	0.0001123	10	0.0006969	0.1000272	0
	44	81	38.42213	143.5821	-0.1842359	1	143.5822	-0.0735184	-2.101812E-006	0.0001139	10	0.0006965	0.1000035	0
	45	82	31.25	143.6141	-0.1892142	1	143.6142	-0.0754882	-2.082887E-006	0.0001137	10	0.0006963	0.100001	0
	46	84	24.93351	143.6406	-0.1833305	1	143.6407	-0.0731274	-2.055681E-006	0.0001123	10	0.0006962	0.099999	0
	47	86	20.03205	143.6526	-0.1766016	1	143.6527	-0.0704375	-2.022021E-006	0.0001096	10	0.0006961	0.0999995	0
	48	88	15.625	143.6828	-0.1799462	1	143.6829	-0.0717563	-1.998244E-006	0.0001121	10	0.000696	0.0999996	0
	49	90	12.46675	143.713	-0.1749024	1	143.7131	-0.0697304	-1.943041E-006	0.0001113	10	0.0006958	0.1000004	0
	50	92	9.9734	143.7351	-0.1756668	1	143.7352	-0.0700244	-1.887808E-006	0.0001123	10	0.0006957	0.0999994	0
	51	94	7.971939	143.7466	-0.1743723	1	143.7467	-0.0695028	-1.897588E-006	0.0001127	10	0.0006957	0.0999992	0
	52	97	6.351626	143.7492	-0.1745316	1	143.7493	-0.069565	-1.9041E-006	0.0001143	10	0.0006957	0.0999996	0
	53	99	5.013369	143.7611	-0.1757162	1	143.7612	-0.0700314	-1.816858E-006	0.0001114	10	0.0006956	0.1000003	0
	54	102	3.985969	143.7832	-0.1759439	1	143.7833	-0.0701114	-1.81679E-006	0.000113	10	0.0006955	0.1000001	0
	55	105	3.175813	143.7943	-0.175473	1	143.7944	-0.0699183	-1.823845E-006	0.0001118	10	0.0006954	0.0999999	0
	56	108	2.516103	143.7827	-0.1622226	1	143.7828	-0.0646438	-1.701714E-006	0.000113	10	0.0006701	0.0964915	0
	57	112	1.99553	143.7527	-0.1599807	1	143.7527	-0.0637638	-1.674038E-006	0.0001136	10	0.0007095	0.1020726	0
	58	116	1.587906	143.7637	-0.1648861	1	143.7637	-0.0657139	-1.560026E-006	0.0001139	10	0.0007013	0.1008562	0
	59	121	1.258052	143.8015	-0.1672984	1	143.8016	-0.0666578	-1.488429E-006	0.0001145	10	0.0006978	0.1003661	0
	60	127	0.997765	143.7787	-0.1639794	1	143.7788	-0.0653457	-1.535005E-006	0.0001131	10	0.0006965	0.1001545	0
	61	133	0.7927448	143.7477	-0.1626418	1	143.7478	-0.0648267	-1.598264E-006	0.0001154	10	0.0006961	0.1000674	0
	62	140	0.6290258	143.7397	-0.1593663	1	143.7397	-0.0635247	-1.596148E-006	0.0001149	10	0.0006959	0.1000316	0
	63	149	0.4988825	143.7361	-0.1535552	1	143.7362	-0.0612098	-1.306419E-006	0.0001136	10	0.0006958	0.1000157	0
	64	159	0.3985969	143.7439	-0.1465923	1	143.7439	-0.0584311	-1.258334E-006	0.0001145	10	0.0006957	0.1000081	0
