EXPLAIN
TAG	EISPOT
TITLE	LABEL	Potentiostatic EIS	Test Identifier
DATE	LABEL	2025/12/23	Date
TIME	LABEL	22:45:08	Time
NOTES	NOTES	1	Notes...
	
PSTAT	PSTAT	IFC1000-11123	Potentiostat
VDC	POTEN	0.00000E+000	T	DC Voltage (V)
FREQINIT	QUANT	1.00000E+006	Initial Freq. (Hz)
FREQFINAL	QUANT	5.00000E-001	Final Freq. (Hz)
PTSPERDEC	QUANT	1.00000E+001	Points/decade
VAC	QUANT	1.00000E+002	AC Voltage (mV rms)
AREA	QUANT	7.85000E-001	Sample Area (cm^2)
SPEED	SELECTOR	1	Optimize for:
DRIFTCOR	SELECTOR	0	Drift Correction
THD	SELECTOR	0	THD
ZGUESS	QUANT	1.00000E+002	Estimated Z (ohms)
EOC	QUANT	-8.483803E-006	Open Circuit (V)
SEQUENCER	TOGGLE	TRUE	Run as Sequence
PSTATMODEL	IQUANT	48	Pstat Model
PSTATSECTION	LABEL	IFC1000-11123	Pstat Section
PSTATSERIALNO	LABEL	11123	Pstat Serial Number
CTRLMODE	IQUANT	1	Control Mode
ELECTROMETER	IQUANT	0	RE=0 or CS=1
IESTAB	IQUANT	0	I/E Stability
CASPEED	IQUANT	3	Control Amp Speed
CONVENTION	IQUANT	1	Current Convention
ICHRANGE	IQUANT	2	Ich Range
ICHRANGEMODE	TOGGLE	F	Ich Auto Range
ICHOFFSETENABLE	TOGGLE	T	Ich Offset Enable
ICHOFFSET	QUANT	0	Ich Offset (V)
ICHFILTER	IQUANT	4	Ich Filter
VCHRANGE	IQUANT	2	Vch Range
VCHRANGEMODE	TOGGLE	F	Vch Auto Range
VCHOFFSETENABLE	TOGGLE	T	Vch Offset Enable
VCHOFFSET	QUANT	0	Vch Offset (V)
VCHFILTER	IQUANT	4	Vch Filter
IERANGELOWERLIMIT	IQUANT	4	I/E Range Lower Limit
IERANGEMODE	TOGGLE	F	I/E AutoRange
IERANGE	IQUANT	11	I/E Range
ACHSELECT	IQUANT	0	Ach Select
ACHRANGE	IQUANT	2	Ach Range
ACHOFFSETENABLE	TOGGLE	F	Ach Offset Enable
ACHOFFSET	QUANT	0	Ach Offset (V)
ACHFILTER	IQUANT	1	Ach Filter
SENSECABLEID	IQUANT	14	Sense Cable ID
PWRCABLEID	IQUANT	14	Power Cable ID
DCCALDATE	LABEL	5/23/2025	DC Calibration Date
ACCALDATE	LABEL	4/29/2023	AC Calibration Date
FRAMEWORKVERSION	LABEL	7.10.0	Framework Version
INSTRUMENTVERSION	LABEL	4.72	Instrument Version
COMMVERSION	LABEL	3.10	Communications Version
CPUPLDVERSION	LABEL	1.10	CPU PLD Version
CTRLPLDVERSION	LABEL	0.00	CTRL PLD Version
PSTATPLDVERSION	LABEL	0.00	PSTAT PLD Version
ZCURVE	TABLE
	Pt	Time	Freq	Zreal	Zimag	Zsig	Zmod	Zphz	Idc	Vdc	IERange	Imod	Vmod	Temp
	#	s	Hz	ohm	ohm	V	ohm	°	A	V	#	A	V	°C
	0	3	1000020	121.5202	-2.82872	1	121.5531	-1.333477	-1.214004E-005	0.0002742	10	0.0008568	0.099996	0
	1	5	794355.5	122.5944	-3.952587	1	122.6581	-1.846643	-1.203022E-005	0.000275	10	0.0012651	0.1505219	0
	2	7	630996.1	123.7472	-4.924259	1	123.8451	-2.278763	-1.254172E-005	0.0002701	10	0.0011256	0.1362324	0
	3	9	501269.5	124.9774	-5.764287	1	125.1102	-2.640761	-1.270684E-005	0.0002618	10	0.001042	0.1280715	0
	4	10	398144.5	126.2722	-6.465868	1	126.4376	-2.931316	-1.285799E-005	0.0002574	10	0.0009868	0.1230385	0
	5	12	316230.5	127.6418	-7.053636	1	127.8365	-3.163016	-1.287196E-005	0.000244	10	0.0009387	0.1186532	0
	6	14	251191.4	129.0495	-7.464109	1	129.2652	-3.31025	-1.289902E-005	0.0002402	10	0.000898	0.1150109	0
	7	16	199628.9	130.5013	-7.743845	1	130.7309	-3.395904	-1.313438E-005	0.0002131	10	0.0008567	0.11115	0
	8	18	158496.1	131.9912	-7.869142	1	132.2256	-3.411859	-1.308735E-005	0.0002275	10	0.0008241	0.1083005	0
	9	19	125918	133.4514	-7.859316	1	133.6827	-3.37041	-1.322756E-005	0.0002188	10	0.0007937	0.1055989	0
	10	21	100019.5	134.9148	-7.679043	1	135.1331	-3.257631	-1.996045E-006	0.0001034	10	0.0007505	0.1010031	0
	11	23	79511.72	136.2512	-7.39355	1	136.4516	-3.106058	-2.040947E-006	0.0000989	10	0.0007659	0.1042293	0
	12	25	63105.47	137.5435	-6.968212	1	137.7199	-2.900231	-2.107692E-006	9.363327E-005	10	0.0007435	0.1022279	0
	13	27	50214.84	138.6887	-6.44119	1	138.8382	-2.659106	-2.148473E-006	9.312556E-005	10	0.0007298	0.1012069	0
	14	28	39902.34	139.7106	-5.837261	1	139.8324	-2.392489	-2.181712E-006	9.271299E-005	10	0.0007205	0.1006765	0
	15	30	31699.22	140.5653	-5.192528	1	140.6611	-2.115563	-2.128454E-006	9.171868E-005	10	0.0007139	0.1003685	0
	16	32	25136.72	141.2701	-4.53777	1	141.343	-1.839778	-2.062505E-006	9.078239E-005	10	0.0007092	0.1002117	0
	17	34	19980.47	141.8323	-3.918201	1	141.8864	-1.582427	-2.121264E-006	9.038101E-005	10	0.0007057	0.1001156	0
	18	35	15878.91	142.278	-3.347039	1	142.3174	-1.347614	-2.09334E-006	9.048959E-005	10	0.0007034	0.100093	0
	19	37	12597.66	142.6161	-2.823348	1	142.6441	-1.134127	-1.927483E-006	9.191618E-005	10	0.0007014	0.1000404	0
	20	39	10019.53	142.8664	-2.376139	1	142.8862	-0.952849	-1.798133E-006	9.277722E-005	10	0.0006999	0.1000022	0
	21	41	7928.241	143.061	-1.982595	1	143.0747	-0.7939765	1.396529E-007	0.000148	10	0.0006991	0.1000183	0
	22	42	6307.871	143.2001	-1.656979	1	143.2097	-0.6629441	1.281636E-007	0.0001481	10	0.0006985	0.1000253	0
	23	44	5034.722	143.3027	-1.394013	1	143.3095	-0.5573412	-1.448978E-006	0.0001227	10	0.0006789	0.0970557	0
	24	46	3993.056	143.3857	-1.166991	1	143.3905	-0.4663099	-1.397694E-006	0.0001213	10	0.0007107	0.1017594	0
	25	48	3144.055	143.4529	-0.976537	1	143.4562	-0.3900274	-1.301322E-006	0.0001201	10	0.0007028	0.1007384	0
	26	49	2519.531	143.5003	-0.8342006	1	143.5027	-0.3330699	-1.252465E-006	0.0001198	10	0.0006991	0.1002669	0
	27	51	2000.762	143.5474	-0.7172754	1	143.5492	-0.2862922	-1.198848E-006	0.00012	10	0.0006978	0.1001413	0
	28	53	1580.669	143.5893	-0.6231019	1	143.5907	-0.2486319	-1.210664E-006	0.0001187	10	0.0006968	0.1000319	0
	29	55	1253.634	143.6308	-0.5502138	1	143.6318	-0.2194848	-1.257434E-006	0.0001194	10	0.0006964	0.1000159	0
	30	56	1000.702	143.6718	-0.4927745	1	143.6727	-0.1965159	-1.275319E-006	0.0001201	10	0.0006962	0.1000169	0
	31	58	790.0281	143.7178	-0.4493759	1	143.7186	-0.1791514	-1.33297E-006	0.00012	10	0.0006957	0.0999799	0
	32	60	628.811	143.7563	-0.414554	1	143.7569	-0.165225	-1.401969E-006	0.0001212	10	0.0006956	0.0999988	0
	33	61	502.2321	143.8056	-0.3930044	1	143.8062	-0.1565824	-1.497504E-006	0.0001181	10	0.0006682	0.0954395	0
	34	63	400.1524	143.846	-0.365313	1	143.8465	-0.1455087	-1.573805E-006	0.0001174	10	0.0007168	0.1026325	0
	35	65	315.5048	143.89	-0.3472531	1	143.8904	-0.138273	-1.531033E-006	0.0001164	10	0.0007049	0.1011266	0
	36	67	252.0161	143.9319	-0.3301835	1	143.9323	-0.1314378	-1.531034E-006	0.000115	10	0.0006986	0.1003625	0
	37	68	200.3205	143.9782	-0.3141949	1	143.9785	-0.1250329	-1.538185E-006	0.0001154	10	0.0006957	0.1000469	0
	38	70	158.0056	144.0245	-0.2995783	1	144.0248	-0.119178	-1.580722E-006	0.0001162	10	0.0006926	0.0996689	0
	39	72	125.558	144.0638	-0.2854335	1	144.0641	-0.1135199	-1.55655E-006	0.0001202	10	0.0006884	0.099126	0
	40	73	99.734	144.098	-0.2708935	1	144.0982	-0.1077117	-1.593513E-006	0.000114	10	0.0006793	0.0978518	0
	41	75	79.44915	144.1286	-0.2467617	1	144.1288	-0.0980957	-1.589941E-006	0.0001154	10	0.0007141	0.1029094	0
	42	77	62.91946	144.1586	-0.2472265	1	144.1588	-0.09826	-1.578516E-006	0.0001137	10	0.0006938	0.100009	0
	43	79	49.86702	144.1911	-0.2328968	1	144.1913	-0.0925438	-1.520654E-006	0.0001156	10	0.0006938	0.1000301	0
	44	80	38.42213	144.2273	-0.2156902	1	144.2274	-0.0856851	-1.476067E-006	0.0001146	10	0.0006934	0.1000027	0
	45	82	31.25	144.2604	-0.2136605	1	144.2606	-0.0848593	-1.336089E-006	0.0001146	10	0.0006932	0.1000016	0
	46	84	24.93351	144.2938	-0.2063801	1	144.294	-0.0819487	-1.249018E-006	0.0001162	10	0.000693	0.0999986	0
	47	86	20.03205	144.317	-0.1977177	1	144.3172	-0.0784965	-1.2104E-006	0.0001132	10	0.0006929	0.1	0
	48	88	15.625	144.3386	-0.1924326	1	144.3387	-0.0763868	-1.142035E-006	0.0001145	10	0.0006928	0.0999999	0
	49	90	12.46675	144.3613	-0.1876066	1	144.3614	-0.0744594	-1.009176E-006	0.0001155	10	0.0006927	0.1	0
	50	92	9.9734	144.3736	-0.1828053	1	144.3737	-0.0725477	-9.45952E-007	0.0001147	10	0.0006926	0.099999	0
	51	94	7.971939	144.3777	-0.1800834	1	144.3778	-0.0714654	-9.499924E-007	0.0001135	10	0.0006926	0.1000003	0
	52	96	6.351626	144.3827	-0.1777969	1	144.3828	-0.0705556	-1.063839E-006	0.0001138	10	0.0006926	0.0999996	0
	53	99	5.013369	144.3802	-0.1744175	1	144.3803	-0.0692157	-1.112098E-006	0.0001116	10	0.0006926	0.1	0
	54	101	3.985969	144.3805	-0.1759256	1	144.3806	-0.0698141	-1.111172E-006	0.0001132	10	0.0006926	0.0999993	0
	55	104	3.175813	144.3834	-0.1744419	1	144.3835	-0.0692239	-1.1445E-006	0.0001144	10	0.0006926	0.0999997	0
	56	108	2.516103	144.3936	-0.155265	1	144.3936	-0.0616096	-1.091928E-006	0.0001162	10	0.0006672	0.0964893	0
	57	112	1.99553	144.379	-0.1537686	1	144.379	-0.061022	-8.896432E-007	0.0001175	10	0.0007064	0.1020731	0
	58	116	1.587906	144.3927	-0.1588286	1	144.3928	-0.063024	-7.092267E-007	0.0001172	10	0.0006982	0.100856	0
	59	121	1.258052	144.4023	-0.1617836	1	144.4024	-0.0641923	-5.375132E-007	0.0001153	10	0.0006949	0.1003667	0
	60	127	0.997765	144.4074	-0.1594042	1	144.4075	-0.063246	-5.164213E-007	0.0001161	10	0.0006935	0.1001541	0
	61	133	0.7927448	144.3975	-0.1601676	1	144.3976	-0.0635532	-7.802789E-007	0.000116	10	0.000693	0.1000676	0
	62	140	0.6290258	144.3957	-0.156828	1	144.3958	-0.0622289	-7.6089E-007	0.0001175	10	0.0006927	0.1000318	0
	63	148	0.4988825	144.4155	-0.1488316	1	144.4156	-0.0590478	-7.775927E-007	0.0001169	10	0.0006925	0.1000164	0
	64	158	0.3985969	144.4604	-0.145092	1	144.4605	-0.0575463	-9.792001E-007	0.0001173	10	0.0006923	0.1000081	0
