EXPLAIN
TAG	EISPOT
TITLE	LABEL	Potentiostatic EIS	Test Identifier
DATE	LABEL	2025/12/24	Date
TIME	LABEL	1:25:45	Time
NOTES	NOTES	1	Notes...
	
PSTAT	PSTAT	IFC1000-11123	Potentiostat
VDC	POTEN	0.00000E+000	T	DC Voltage (V)
FREQINIT	QUANT	1.00000E+006	Initial Freq. (Hz)
FREQFINAL	QUANT	5.00000E-001	Final Freq. (Hz)
PTSPERDEC	QUANT	1.00000E+001	Points/decade
VAC	QUANT	1.00000E+002	AC Voltage (mV rms)
AREA	QUANT	7.85000E-001	Sample Area (cm^2)
SPEED	SELECTOR	1	Optimize for:
DRIFTCOR	SELECTOR	0	Drift Correction
THD	SELECTOR	0	THD
ZGUESS	QUANT	1.00000E+002	Estimated Z (ohms)
EOC	QUANT	-7.218175E-006	Open Circuit (V)
SEQUENCER	TOGGLE	TRUE	Run as Sequence
PSTATMODEL	IQUANT	48	Pstat Model
PSTATSECTION	LABEL	IFC1000-11123	Pstat Section
PSTATSERIALNO	LABEL	11123	Pstat Serial Number
CTRLMODE	IQUANT	1	Control Mode
ELECTROMETER	IQUANT	0	RE=0 or CS=1
IESTAB	IQUANT	0	I/E Stability
CASPEED	IQUANT	3	Control Amp Speed
CONVENTION	IQUANT	1	Current Convention
ICHRANGE	IQUANT	2	Ich Range
ICHRANGEMODE	TOGGLE	F	Ich Auto Range
ICHOFFSETENABLE	TOGGLE	T	Ich Offset Enable
ICHOFFSET	QUANT	0	Ich Offset (V)
ICHFILTER	IQUANT	4	Ich Filter
VCHRANGE	IQUANT	2	Vch Range
VCHRANGEMODE	TOGGLE	F	Vch Auto Range
VCHOFFSETENABLE	TOGGLE	T	Vch Offset Enable
VCHOFFSET	QUANT	0	Vch Offset (V)
VCHFILTER	IQUANT	4	Vch Filter
IERANGELOWERLIMIT	IQUANT	4	I/E Range Lower Limit
IERANGEMODE	TOGGLE	F	I/E AutoRange
IERANGE	IQUANT	11	I/E Range
ACHSELECT	IQUANT	0	Ach Select
ACHRANGE	IQUANT	2	Ach Range
ACHOFFSETENABLE	TOGGLE	F	Ach Offset Enable
ACHOFFSET	QUANT	0	Ach Offset (V)
ACHFILTER	IQUANT	1	Ach Filter
SENSECABLEID	IQUANT	14	Sense Cable ID
PWRCABLEID	IQUANT	14	Power Cable ID
DCCALDATE	LABEL	5/23/2025	DC Calibration Date
ACCALDATE	LABEL	4/29/2023	AC Calibration Date
FRAMEWORKVERSION	LABEL	7.10.0	Framework Version
INSTRUMENTVERSION	LABEL	4.72	Instrument Version
COMMVERSION	LABEL	3.10	Communications Version
CPUPLDVERSION	LABEL	1.10	CPU PLD Version
CTRLPLDVERSION	LABEL	0.00	CTRL PLD Version
PSTATPLDVERSION	LABEL	0.00	PSTAT PLD Version
ZCURVE	TABLE
	Pt	Time	Freq	Zreal	Zimag	Zsig	Zmod	Zphz	Idc	Vdc	IERange	Imod	Vmod	Temp
	#	s	Hz	ohm	ohm	V	ohm	°	A	V	#	A	V	°C
	0	3	1000020	122.3775	-3.308748	1	122.4222	-1.548742	-1.230957E-005	0.0002565	10	0.000852	0.1001443	0
	1	5	794355.5	123.5209	-4.414213	1	123.5997	-2.046684	-1.219112E-005	0.0002584	10	0.001255	0.1504685	0
	2	7	630996.1	124.7534	-5.335841	1	124.8675	-2.449111	-1.250155E-005	0.000269	10	0.0011141	0.1359545	0
	3	9	501269.5	126.0339	-6.158473	1	126.1843	-2.797454	-1.270195E-005	0.0002543	10	0.0010343	0.12822	0
	4	10	398144.5	127.4114	-6.841392	1	127.5949	-3.073561	-1.273264E-005	0.0002515	10	0.0009761	0.1228232	0
	5	12	316230.5	128.8244	-7.387933	1	129.0361	-3.282252	-1.29575E-005	0.0002375	10	0.0009309	0.1187679	0
	6	14	251191.4	130.2748	-7.810919	1	130.5087	-3.43119	-1.300526E-005	0.0002305	10	0.00089	0.115084	0
	7	16	199628.9	131.7767	-8.115726	1	132.0264	-3.524221	-1.328542E-005	0.0002142	10	0.0008487	0.1112033	0
	8	18	158496.1	133.3099	-8.25095	1	133.565	-3.541689	-1.309284E-005	0.0002258	10	0.000815	0.1081849	0
	9	19	125918	134.8359	-8.248162	1	135.088	-3.500527	-1.320855E-005	0.0002186	10	0.0007855	0.1056051	0
	10	21	100019.5	136.3718	-8.12009	1	136.6133	-3.407583	-1.99267E-006	0.0000979	10	0.0007423	0.1009973	0
	11	23	79511.72	137.7981	-7.864344	1	138.0223	-3.266413	-1.785379E-006	9.488547E-005	10	0.0007571	0.1042215	0
	12	25	63105.47	139.1788	-7.458003	1	139.3785	-3.067304	-1.780202E-006	9.256262E-005	10	0.0007348	0.1022437	0
	13	26	50214.84	140.4332	-6.940314	1	140.6046	-2.829298	-1.868758E-006	9.039498E-005	10	0.0007205	0.1011891	0
	14	28	39902.34	141.5435	-6.328451	1	141.6849	-2.560007	-1.93992E-006	8.823676E-005	10	0.0007109	0.1006542	0
	15	30	31699.22	142.5037	-5.662627	1	142.6162	-2.275548	-2.035747E-006	8.856435E-005	10	0.0007042	0.1003777	0
	16	32	25136.72	143.2807	-4.981168	1	143.3673	-1.991091	-1.950012E-006	8.816307E-005	10	0.0006992	0.1002145	0
	17	34	19980.47	143.9094	-4.314317	1	143.9741	-1.717178	-1.913721E-006	8.806423E-005	10	0.0006955	0.1001202	0
	18	35	15878.91	144.4154	-3.702635	1	144.4628	-1.468672	-1.95644E-006	8.739886E-005	10	0.0006928	0.1000657	0
	19	37	12597.66	144.8145	-3.135263	1	144.8484	-1.240272	-2.056772E-006	8.832832E-005	10	0.0006908	0.1000469	0
	20	39	10019.53	145.1085	-2.645324	1	145.1326	-1.044384	-2.084297E-006	8.544477E-005	10	0.0006893	0.100036	0
	21	41	7928.241	145.3425	-2.206763	1	145.3592	-0.8698659	-1.997505E-007	0.0001437	10	0.0006879	0.0999883	0
	22	42	6307.871	145.5236	-1.851749	1	145.5354	-0.7290342	-2.85704E-007	0.0001442	10	0.0006873	0.1000282	0
	23	44	5034.722	145.6511	-1.555763	1	145.6594	-0.6119781	-1.889856E-006	0.0001164	10	0.000668	0.0970587	0
	24	46	3993.056	145.758	-1.299891	1	145.7638	-0.5109587	-1.996944E-006	0.0001179	10	0.0006991	0.1017627	0
	25	48	3144.055	145.8466	-1.086565	1	145.8507	-0.4268485	-1.977372E-006	0.0001164	10	0.0006913	0.1007397	0
	26	49	2519.531	145.9145	-0.9247373	1	145.9174	-0.3631088	-1.957407E-006	0.0001156	10	0.0006875	0.1002721	0
	27	51	2000.762	145.9728	-0.7920752	1	145.975	-0.3108943	-1.896258E-006	0.0001165	10	0.000686	0.1001102	0
	28	53	1580.669	146.0255	-0.6822018	1	146.0271	-0.2676724	-1.885637E-006	0.0001152	10	0.0006854	0.1000663	0
	29	55	1253.634	146.0766	-0.5990236	1	146.0779	-0.2349543	-1.861297E-006	0.0001158	10	0.0006848	0.1000187	0
	30	56	1000.702	146.1228	-0.5370017	1	146.1237	-0.2105613	-1.880964E-006	0.0001174	10	0.0006843	0.0999887	0
	31	58	790.0281	146.1715	-0.486561	1	146.1723	-0.1907198	-1.870138E-006	0.0001168	10	0.000684	0.0999816	0
	32	60	628.811	146.2166	-0.44865	1	146.2173	-0.1758054	-1.885773E-006	0.0001131	10	0.0006839	0.1	0
	33	61	502.2321	146.2721	-0.4254998	1	146.2727	-0.1666707	-1.874171E-006	0.0001139	10	0.0006569	0.0954426	0
	34	63	400.1524	146.3168	-0.3978726	1	146.3173	-0.1558014	-1.888587E-006	0.000114	10	0.0007047	0.1026357	0
	35	65	315.5048	146.3655	-0.3764576	1	146.366	-0.1473666	-1.820621E-006	0.0001131	10	0.000693	0.1011315	0
	36	67	252.0161	146.4155	-0.359676	1	146.4159	-0.1407493	-1.956197E-006	0.000112	10	0.0006868	0.1003677	0
	37	68	200.3205	146.469	-0.3472418	1	146.4694	-0.1358339	-1.977935E-006	0.0001118	10	0.0006837	0.1000204	0
	38	70	158.0056	146.5222	-0.3314041	1	146.5226	-0.1295915	-2.007969E-006	0.0001115	10	0.000681	0.0997047	0
	39	72	125.558	146.5641	-0.3161098	1	146.5645	-0.1235755	-1.89126E-006	0.000116	10	0.0006765	0.0991023	0
	40	73	99.734	146.5977	-0.3045363	1	146.598	-0.1190238	-1.865712E-006	0.0001128	10	0.0006678	0.0978615	0
	41	75	79.44915	146.6262	-0.2736832	1	146.6264	-0.1069445	-1.920147E-006	0.000112	10	0.0007019	0.1029016	0
	42	77	62.91946	146.6589	-0.2757199	1	146.6592	-0.1077164	-1.846601E-006	0.0001104	10	0.000682	0.10001	0
	43	79	49.86702	146.6849	-0.2637341	1	146.6852	-0.1030156	-1.832832E-006	0.0001126	10	0.000682	0.100029	0
	44	80	38.42213	146.7081	-0.2376247	1	146.7083	-0.0928025	-1.794886E-006	0.0001108	10	0.0006817	0.1000029	0
	45	82	31.25	146.7215	-0.236947	1	146.7217	-0.0925294	-1.743594E-006	0.000112	10	0.0006816	0.1000015	0
	46	84	24.93351	146.7391	-0.225933	1	146.7393	-0.0882178	-1.817902E-006	0.0001136	10	0.0006815	0.0999993	0
	47	86	20.03205	146.7524	-0.2138339	1	146.7526	-0.083486	-1.836091E-006	0.0001091	10	0.0006814	0.0999996	0
	48	88	15.625	146.7687	-0.2076959	1	146.7689	-0.0810806	-1.82922E-006	0.0001127	10	0.0006813	0.099999	0
	49	90	12.46675	146.7755	-0.1988059	1	146.7756	-0.0776065	-1.863641E-006	0.0001112	10	0.0006813	0.1	0
	50	92	9.9734	146.7882	-0.1921199	1	146.7883	-0.0749901	-1.857887E-006	0.0001129	10	0.0006813	0.0999999	0
	51	94	7.971939	146.7922	-0.1869095	1	146.7923	-0.0729543	-1.830267E-006	0.0001118	10	0.0006812	0.0999993	0
	52	96	6.351626	146.7957	-0.1824536	1	146.7958	-0.0712134	-1.73803E-006	0.0001105	10	0.0006812	0.1000003	0
	53	99	5.013369	146.7917	-0.1772551	1	146.7918	-0.0691862	-1.617156E-006	0.0001095	10	0.0006812	0.0999996	0
	54	101	3.985969	146.7871	-0.1757478	1	146.7872	-0.0686	-1.611858E-006	0.0001126	10	0.0006813	0.0999997	0
	55	104	3.175813	146.782	-0.1743065	1	146.7822	-0.0680398	-1.668581E-006	0.0001129	10	0.0006813	0.1000002	0
	56	108	2.516103	146.7787	-0.1542189	1	146.7787	-0.0602001	-1.662881E-006	0.0001146	10	0.0006564	0.0964872	0
	57	111	1.99553	146.749	-0.1525359	1	146.7491	-0.0595551	-1.6874E-006	0.0001141	10	0.000695	0.1020736	0
	58	116	1.587906	146.7612	-0.1578856	1	146.7613	-0.0616387	-1.688148E-006	0.0001146	10	0.0006869	0.1008559	0
	59	121	1.258052	146.771	-0.1612717	1	146.7711	-0.0629565	-1.686119E-006	0.0001145	10	0.0006837	0.1003663	0
	60	127	0.997765	146.8061	-0.157915	1	146.8062	-0.0616314	-1.783398E-006	0.0001149	10	0.0006822	0.1001552	0
	61	133	0.7927448	146.8532	-0.1584152	1	146.8533	-0.0618068	-1.809636E-006	0.0001148	10	0.0006814	0.1000678	0
	62	140	0.6290258	146.8752	-0.1505682	1	146.8752	-0.0587364	-1.687381E-006	0.0001142	10	0.000681	0.1000318	0
	63	148	0.4988825	146.8974	-0.1482275	1	146.8975	-0.0578145	-1.687964E-006	0.0001148	10	0.0006808	0.1000156	0
	64	158	0.3985969	146.9006	-0.141135	1	146.9006	-0.055047	-1.711727E-006	0.0001148	10	0.0006808	0.1000085	0
