EXPLAIN
TAG	EISPOT
TITLE	LABEL	Potentiostatic EIS	Test Identifier
DATE	LABEL	2025/12/24	Date
TIME	LABEL	0:57:24	Time
NOTES	NOTES	1	Notes...
	
PSTAT	PSTAT	IFC1000-11123	Potentiostat
VDC	POTEN	0.00000E+000	T	DC Voltage (V)
FREQINIT	QUANT	1.00000E+006	Initial Freq. (Hz)
FREQFINAL	QUANT	5.00000E-001	Final Freq. (Hz)
PTSPERDEC	QUANT	1.00000E+001	Points/decade
VAC	QUANT	1.00000E+002	AC Voltage (mV rms)
AREA	QUANT	7.85000E-001	Sample Area (cm^2)
SPEED	SELECTOR	1	Optimize for:
DRIFTCOR	SELECTOR	0	Drift Correction
THD	SELECTOR	0	THD
ZGUESS	QUANT	1.00000E+002	Estimated Z (ohms)
EOC	QUANT	-6.988351E-006	Open Circuit (V)
SEQUENCER	TOGGLE	TRUE	Run as Sequence
PSTATMODEL	IQUANT	48	Pstat Model
PSTATSECTION	LABEL	IFC1000-11123	Pstat Section
PSTATSERIALNO	LABEL	11123	Pstat Serial Number
CTRLMODE	IQUANT	1	Control Mode
ELECTROMETER	IQUANT	0	RE=0 or CS=1
IESTAB	IQUANT	0	I/E Stability
CASPEED	IQUANT	3	Control Amp Speed
CONVENTION	IQUANT	1	Current Convention
ICHRANGE	IQUANT	2	Ich Range
ICHRANGEMODE	TOGGLE	F	Ich Auto Range
ICHOFFSETENABLE	TOGGLE	T	Ich Offset Enable
ICHOFFSET	QUANT	0	Ich Offset (V)
ICHFILTER	IQUANT	4	Ich Filter
VCHRANGE	IQUANT	2	Vch Range
VCHRANGEMODE	TOGGLE	F	Vch Auto Range
VCHOFFSETENABLE	TOGGLE	T	Vch Offset Enable
VCHOFFSET	QUANT	0	Vch Offset (V)
VCHFILTER	IQUANT	4	Vch Filter
IERANGELOWERLIMIT	IQUANT	4	I/E Range Lower Limit
IERANGEMODE	TOGGLE	F	I/E AutoRange
IERANGE	IQUANT	11	I/E Range
ACHSELECT	IQUANT	0	Ach Select
ACHRANGE	IQUANT	2	Ach Range
ACHOFFSETENABLE	TOGGLE	F	Ach Offset Enable
ACHOFFSET	QUANT	0	Ach Offset (V)
ACHFILTER	IQUANT	1	Ach Filter
SENSECABLEID	IQUANT	14	Sense Cable ID
PWRCABLEID	IQUANT	14	Power Cable ID
DCCALDATE	LABEL	5/23/2025	DC Calibration Date
ACCALDATE	LABEL	4/29/2023	AC Calibration Date
FRAMEWORKVERSION	LABEL	7.10.0	Framework Version
INSTRUMENTVERSION	LABEL	4.72	Instrument Version
COMMVERSION	LABEL	3.10	Communications Version
CPUPLDVERSION	LABEL	1.10	CPU PLD Version
CTRLPLDVERSION	LABEL	0.00	CTRL PLD Version
PSTATPLDVERSION	LABEL	0.00	PSTAT PLD Version
ZCURVE	TABLE
	Pt	Time	Freq	Zreal	Zimag	Zsig	Zmod	Zphz	Idc	Vdc	IERange	Imod	Vmod	Temp
	#	s	Hz	ohm	ohm	V	ohm	°	A	V	#	A	V	°C
	0	4	1000020	122.4186	-3.250029	1	122.4617	-1.52076	-1.228734E-005	0.0002675	10	0.0008505	0.1000018	0
	1	5	794355.5	123.5477	-4.352976	1	123.6243	-2.017877	-1.214124E-005	0.0002751	10	0.0012555	0.1505522	0
	2	7	630996.1	124.7634	-5.294545	1	124.8757	-2.429985	-1.242262E-005	0.0002695	10	0.0011158	0.1361649	0
	3	9	501269.5	126.0518	-6.106522	1	126.1996	-2.7735	-1.278925E-005	0.0002511	10	0.0010318	0.1279321	0
	4	11	398144.5	127.4134	-6.802996	1	127.5949	-3.056296	-1.299167E-005	0.0002539	10	0.0009789	0.1231678	0
	5	13	316230.5	128.8075	-7.347992	1	129.0169	-3.264973	-1.312466E-005	0.000239	10	0.000931	0.1187662	0
	6	14	251191.4	130.2461	-7.775944	1	130.478	-3.416614	-1.314387E-005	0.0002328	10	0.0008867	0.1146267	0
	7	16	199628.9	131.7364	-8.058009	1	131.9826	-3.500288	-1.342362E-005	0.0002079	10	0.000849	0.1112036	0
	8	18	158496.1	133.2616	-8.221979	1	133.515	-3.530561	-1.335959E-005	0.0002235	10	0.0008175	0.1084781	0
	9	20	125918	134.7691	-8.2082	1	135.0189	-3.48533	-1.338386E-005	0.000221	10	0.0007859	0.1056066	0
	10	21	100019.5	136.292	-8.067891	1	136.5306	-3.387706	-2.213689E-006	0.0001018	10	0.0007428	0.1009973	0
	11	23	79511.72	137.7002	-7.804806	1	137.9212	-3.244036	-2.166632E-006	0.0000983	10	0.0007576	0.1042201	0
	12	25	63105.47	139.0636	-7.398417	1	139.2602	-3.045362	-2.241434E-006	0.0000951	10	0.0007355	0.1022468	0
	13	27	50214.84	140.2942	-6.874349	1	140.4625	-2.805223	-2.203001E-006	9.352429E-005	10	0.0007212	0.1011894	0
	14	29	39902.34	141.4002	-6.267029	1	141.539	-2.537758	-2.158318E-006	9.314751E-005	10	0.0007117	0.1006544	0
	15	30	31699.22	142.3398	-5.604897	1	142.4501	-2.254964	-2.177028E-006	9.145905E-005	10	0.000705	0.100377	0
	16	32	25136.72	143.1249	-4.919262	1	143.2094	-1.968505	-2.112026E-006	9.012688E-005	10	0.0007	0.1002164	0
	17	34	19980.47	143.7618	-4.265692	1	143.8251	-1.699578	-2.175901E-006	8.796691E-005	10	0.0006963	0.1001204	0
	18	36	15878.91	144.2554	-3.659431	1	144.3018	-1.453152	-2.189639E-006	8.894416E-005	10	0.0006935	0.1000662	0
	19	37	12597.66	144.6492	-3.093009	1	144.6823	-1.224959	-2.168307E-006	9.034341E-005	10	0.0006915	0.1000457	0
	20	39	10019.53	144.9487	-2.606451	1	144.9721	-1.030175	-2.104984E-006	9.039277E-005	10	0.0006899	0.1000068	0
	21	41	7928.241	145.1712	-2.174395	1	145.1875	-0.8581201	-1.349522E-007	0.0001466	10	0.0006889	0.1000212	0
	22	43	6307.871	145.334	-1.821349	1	145.3454	-0.7180026	9.526389E-009	0.0001472	10	0.0006882	0.1000284	0
	23	44	5034.722	145.4642	-1.533387	1	145.4723	-0.6039516	-1.632799E-006	0.0001202	10	0.0006689	0.097059	0
	24	46	3993.056	145.5704	-1.281843	1	145.5761	-0.504514	-1.67884E-006	0.0001191	10	0.0007	0.1017618	0
	25	48	3144.055	145.6564	-1.06892	1	145.6603	-0.4204658	-1.706522E-006	0.000118	10	0.0006922	0.1007405	0
	26	50	2519.531	145.7188	-0.9107197	1	145.7216	-0.3580851	-1.681755E-006	0.0001172	10	0.0006885	0.1002717	0
	27	51	2000.762	145.7758	-0.7771128	1	145.7779	-0.3054338	-1.669713E-006	0.0001183	10	0.0006869	0.1001104	0
	28	53	1580.669	145.8175	-0.6719216	1	145.8191	-0.2640149	-1.673379E-006	0.0001162	10	0.0006862	0.1000353	0
	29	55	1253.634	145.8554	-0.5893379	1	145.8566	-0.2315059	-1.709703E-006	0.0001188	10	0.0006858	0.1000186	0
	30	57	1000.702	145.8924	-0.5278752	1	145.8933	-0.2073096	-1.656115E-006	0.0001191	10	0.0006856	0.1000219	0
	31	58	790.0281	145.9296	-0.4774972	1	145.9304	-0.1874772	-1.706424E-006	0.0001192	10	0.0006852	0.0999841	0
	32	60	628.811	145.9661	-0.4378926	1	145.9668	-0.1718846	-1.712282E-006	0.0001187	10	0.0006851	0.1000018	0
	33	62	502.2321	146.017	-0.4206981	1	146.0176	-0.1650778	-1.737818E-006	0.0001152	10	0.0006579	0.0954131	0
	34	63	400.1524	146.0533	-0.3913863	1	146.0538	-0.1535379	-1.85908E-006	0.0001144	10	0.000706	0.102636	0
	35	65	315.5048	146.0977	-0.3703792	1	146.0982	-0.1452529	-1.838337E-006	0.000114	10	0.0006943	0.1011331	0
	36	67	252.0161	146.1337	-0.3546297	1	146.1341	-0.1390421	-1.89535E-006	0.0001127	10	0.0006884	0.1003983	0
	37	69	200.3205	146.1779	-0.3403666	1	146.1783	-0.1334096	-1.877208E-006	0.0001128	10	0.0006851	0.1000231	0
	38	70	158.0056	146.2224	-0.326167	1	146.2228	-0.127805	-1.882358E-006	0.0001132	10	0.0006822	0.0996762	0
	39	72	125.558	146.2659	-0.3145267	1	146.2662	-0.1232073	-1.830771E-006	0.000117	10	0.0006779	0.099103	0
	40	74	99.734	146.3057	-0.3005137	1	146.306	-0.1176861	-1.846774E-006	0.0001146	10	0.0006693	0.0978928	0
	41	75	79.44915	146.3436	-0.2718745	1	146.3439	-0.1064429	-1.874145E-006	0.0001138	10	0.0007031	0.1028759	0
	42	77	62.91946	146.3879	-0.274443	1	146.3881	-0.107416	-1.955053E-006	0.0001109	10	0.0006833	0.1000133	0
	43	79	49.86702	146.4224	-0.2612883	1	146.4226	-0.1022433	-1.870864E-006	0.0001118	10	0.0006832	0.1000277	0
	44	81	38.42213	146.4592	-0.2378293	1	146.4594	-0.0930403	-1.873324E-006	0.0001129	10	0.0006828	0.1000024	0
	45	83	31.25	146.492	-0.2387067	1	146.4922	-0.0933626	-1.915438E-006	0.0001138	10	0.0006827	0.1000016	0
	46	84	24.93351	146.5276	-0.2254355	1	146.5277	-0.0881506	-1.868077E-006	0.000112	10	0.0006825	0.0999972	0
	47	86	20.03205	146.5545	-0.2125852	1	146.5546	-0.0831106	-1.866783E-006	0.0001095	10	0.0006824	0.1000015	0
	48	88	15.625	146.5828	-0.204247	1	146.5829	-0.0798353	-1.844428E-006	0.0001141	10	0.0006822	0.0999995	0
	49	90	12.46675	146.6027	-0.1985711	1	146.6029	-0.0776062	-1.854189E-006	0.0001132	10	0.0006821	0.0999997	0
	50	92	9.9734	146.6198	-0.190534	1	146.6199	-0.0744564	-1.863168E-006	0.0001131	10	0.000682	0.0999992	0
	51	94	7.971939	146.636	-0.1853992	1	146.6362	-0.0724418	-1.909049E-006	0.0001137	10	0.000682	0.0999998	0
	52	97	6.351626	146.6417	-0.1818072	1	146.6418	-0.0710356	-1.909624E-006	0.000113	10	0.0006819	0.0999999	0
	53	99	5.013369	146.6469	-0.1776121	1	146.647	-0.069394	-1.958186E-006	0.0001098	10	0.0006819	0.0999999	0
	54	102	3.985969	146.6474	-0.1757042	1	146.6475	-0.0686484	-1.883457E-006	0.0001136	10	0.0006819	0.0999999	0
	55	105	3.175813	146.6476	-0.1741718	1	146.6477	-0.0680496	-1.791676E-006	0.0001117	10	0.0006819	0.0999998	0
	56	108	2.516103	146.6473	-0.1540718	1	146.6474	-0.0601966	-1.794961E-006	0.0001158	10	0.0006569	0.0964878	0
	57	112	1.99553	146.6351	-0.1544308	1	146.6351	-0.0603418	-1.840193E-006	0.000116	10	0.0006956	0.1020735	0
	58	116	1.587906	146.6483	-0.1573368	1	146.6484	-0.0614718	-1.909073E-006	0.0001149	10	0.0006875	0.1008562	0
	59	121	1.258052	146.6668	-0.1615833	1	146.6669	-0.0631229	-1.817797E-006	0.0001143	10	0.0006842	0.1003664	0
	60	127	0.997765	146.6952	-0.157856	1	146.6953	-0.0616549	-1.86145E-006	0.0001146	10	0.0006827	0.1001548	0
	61	133	0.7927448	146.7471	-0.1571157	1	146.7472	-0.0613441	-1.864359E-006	0.0001149	10	0.0006819	0.1000682	0
	62	140	0.6290258	146.7789	-0.1538881	1	146.7789	-0.0600709	-1.792352E-006	0.0001157	10	0.0006815	0.1000312	0
	63	149	0.4988825	146.7905	-0.1498602	1	146.7905	-0.0584939	-1.80681E-006	0.0001148	10	0.0006813	0.1000167	0
	64	159	0.3985969	146.7679	-0.1428139	1	146.768	-0.0557522	-1.663944E-006	0.0001168	10	0.0006814	0.1000081	0
