EXPLAIN
TAG	EISPOT
TITLE	LABEL	Potentiostatic EIS	Test Identifier
DATE	LABEL	2025/12/23	Date
TIME	LABEL	23:04:02	Time
NOTES	NOTES	1	Notes...
	
PSTAT	PSTAT	IFC1000-11123	Potentiostat
VDC	POTEN	0.00000E+000	T	DC Voltage (V)
FREQINIT	QUANT	1.00000E+006	Initial Freq. (Hz)
FREQFINAL	QUANT	5.00000E-001	Final Freq. (Hz)
PTSPERDEC	QUANT	1.00000E+001	Points/decade
VAC	QUANT	1.00000E+002	AC Voltage (mV rms)
AREA	QUANT	7.85000E-001	Sample Area (cm^2)
SPEED	SELECTOR	1	Optimize for:
DRIFTCOR	SELECTOR	0	Drift Correction
THD	SELECTOR	0	THD
ZGUESS	QUANT	1.00000E+002	Estimated Z (ohms)
EOC	QUANT	-6.783974E-006	Open Circuit (V)
SEQUENCER	TOGGLE	TRUE	Run as Sequence
PSTATMODEL	IQUANT	48	Pstat Model
PSTATSECTION	LABEL	IFC1000-11123	Pstat Section
PSTATSERIALNO	LABEL	11123	Pstat Serial Number
CTRLMODE	IQUANT	1	Control Mode
ELECTROMETER	IQUANT	0	RE=0 or CS=1
IESTAB	IQUANT	0	I/E Stability
CASPEED	IQUANT	3	Control Amp Speed
CONVENTION	IQUANT	1	Current Convention
ICHRANGE	IQUANT	2	Ich Range
ICHRANGEMODE	TOGGLE	F	Ich Auto Range
ICHOFFSETENABLE	TOGGLE	T	Ich Offset Enable
ICHOFFSET	QUANT	0	Ich Offset (V)
ICHFILTER	IQUANT	4	Ich Filter
VCHRANGE	IQUANT	2	Vch Range
VCHRANGEMODE	TOGGLE	F	Vch Auto Range
VCHOFFSETENABLE	TOGGLE	T	Vch Offset Enable
VCHOFFSET	QUANT	0	Vch Offset (V)
VCHFILTER	IQUANT	4	Vch Filter
IERANGELOWERLIMIT	IQUANT	4	I/E Range Lower Limit
IERANGEMODE	TOGGLE	F	I/E AutoRange
IERANGE	IQUANT	11	I/E Range
ACHSELECT	IQUANT	0	Ach Select
ACHRANGE	IQUANT	2	Ach Range
ACHOFFSETENABLE	TOGGLE	F	Ach Offset Enable
ACHOFFSET	QUANT	0	Ach Offset (V)
ACHFILTER	IQUANT	1	Ach Filter
SENSECABLEID	IQUANT	14	Sense Cable ID
PWRCABLEID	IQUANT	14	Power Cable ID
DCCALDATE	LABEL	5/23/2025	DC Calibration Date
ACCALDATE	LABEL	4/29/2023	AC Calibration Date
FRAMEWORKVERSION	LABEL	7.10.0	Framework Version
INSTRUMENTVERSION	LABEL	4.72	Instrument Version
COMMVERSION	LABEL	3.10	Communications Version
CPUPLDVERSION	LABEL	1.10	CPU PLD Version
CTRLPLDVERSION	LABEL	0.00	CTRL PLD Version
PSTATPLDVERSION	LABEL	0.00	PSTAT PLD Version
ZCURVE	TABLE
	Pt	Time	Freq	Zreal	Zimag	Zsig	Zmod	Zphz	Idc	Vdc	IERange	Imod	Vmod	Temp
	#	s	Hz	ohm	ohm	V	ohm	°	A	V	#	A	V	°C
	0	3	1000020	121.7516	-2.912108	1	121.7865	-1.370164	-1.171567E-005	0.0002608	10	0.0008555	0.1000331	0
	1	5	794355.5	122.8454	-4.036377	1	122.9117	-1.881912	-1.155996E-005	0.00027	10	0.001263	0.150586	0
	2	7	630996.1	124.0249	-4.992275	1	124.1253	-2.305037	-1.201271E-005	0.0002698	10	0.0011215	0.1360371	0
	3	8	501269.5	125.2823	-5.845212	1	125.4186	-2.671272	-1.228481E-005	0.0002541	10	0.0010397	0.1281054	0
	4	10	398144.5	126.5983	-6.541425	1	126.7672	-2.957883	-1.231341E-005	0.0002501	10	0.0009846	0.1230787	0
	5	12	316230.5	127.9871	-7.102922	1	128.1841	-3.176495	-1.2606E-005	0.0002349	10	0.0009364	0.1186786	0
	6	14	251191.4	129.4079	-7.540574	1	129.6274	-3.334845	-1.267545E-005	0.000236	10	0.0008956	0.1150259	0
	7	16	199628.9	130.8707	-7.807607	1	131.1033	-3.41416	-1.298519E-005	0.0002148	10	0.0008543	0.1111583	0
	8	17	158496.1	132.3834	-7.936131	1	132.6211	-3.430665	-1.283583E-005	0.0002253	10	0.0008215	0.1082809	0
	9	19	125918	133.894	-7.950761	1	134.1299	-3.39829	-1.311318E-005	0.0002221	10	0.0007911	0.1056098	0
	10	21	100019.5	135.348	-7.770411	1	135.5709	-3.285778	-1.782559E-006	0.0000999	10	0.0007479	0.1009776	0
	11	23	79511.72	136.7119	-7.490829	1	136.9169	-3.136261	-1.799688E-006	0.0000959	10	0.0007633	0.104234	0
	12	25	63105.47	138.0287	-7.063399	1	138.2093	-2.929466	-1.923046E-006	9.224884E-005	10	0.0007412	0.1022627	0
	13	26	50214.84	139.2012	-6.540096	1	139.3547	-2.689953	-1.850573E-006	9.086443E-005	10	0.0007269	0.1011784	0
	14	28	39902.34	140.2375	-5.930369	1	140.3629	-2.421483	-1.786941E-006	9.086411E-005	10	0.0007178	0.1006788	0
	15	30	31699.22	141.1142	-5.280209	1	141.213	-2.142892	-1.796821E-006	9.038131E-005	10	0.0007111	0.1003725	0
	16	32	25136.72	141.8481	-4.625984	1	141.9235	-1.867882	-1.764362E-006	8.984352E-005	10	0.0007063	0.1002131	0
	17	33	19980.47	142.4314	-3.993375	1	142.4874	-1.605992	-1.832211E-006	9.114307E-005	10	0.0007028	0.1001174	0
	18	35	15878.91	142.8776	-3.404435	1	142.9182	-1.364964	-1.785347E-006	8.752634E-005	10	0.0007002	0.1000625	0
	19	37	12597.66	143.2236	-2.881027	1	143.2525	-1.152383	-1.719635E-006	9.315799E-005	10	0.0006984	0.1000419	0
	20	39	10019.53	143.4937	-2.423379	1	143.5142	-0.967542	-1.757646E-006	9.079301E-005	10	0.0006971	0.1000368	0
	21	40	7928.241	143.6897	-2.023255	1	143.7039	-0.8067132	1.000144E-007	0.0001468	10	0.000696	0.1000199	0
	22	42	6307.871	143.8404	-1.68475	1	143.8503	-0.6710538	7.713516E-008	0.0001465	10	0.0006952	0.0999962	0
	23	44	5034.722	143.9544	-1.422735	1	143.9614	-0.5662493	-1.65202E-006	0.0001194	10	0.0006759	0.0970576	0
	24	46	3993.056	144.0485	-1.191677	1	144.0534	-0.4739827	-1.626607E-006	0.0001199	10	0.0007074	0.1017605	0
	25	47	3144.055	144.1307	-0.995208	1	144.1342	-0.3956152	-1.697076E-006	0.0001181	10	0.0006995	0.1007399	0
	26	49	2519.531	144.1917	-0.8511145	1	144.1942	-0.3381936	-1.66592E-006	0.0001185	10	0.000696	0.1003007	0
	27	51	2000.762	144.2446	-0.7286162	1	144.2464	-0.2894132	-1.641797E-006	0.0001189	10	0.0006942	0.1001109	0
	28	53	1580.669	144.2892	-0.6316184	1	144.2905	-0.2508078	-1.537503E-006	0.0001183	10	0.0006934	0.1000337	0
	29	54	1253.634	144.3313	-0.557044	1	144.3324	-0.221131	-1.55812E-006	0.0001184	10	0.000693	0.1000163	0
	30	56	1000.702	144.3766	-0.5008255	1	144.3775	-0.1987516	-1.491939E-006	0.0001183	10	0.0006928	0.1000201	0
	31	58	790.0281	144.4243	-0.453627	1	144.425	-0.1799616	-1.559605E-006	0.0001188	10	0.0006923	0.0999798	0
	32	60	628.811	144.4701	-0.4197904	1	144.4707	-0.1664853	-1.537701E-006	0.000119	10	0.0006922	0.1000005	0
	33	61	502.2321	144.5212	-0.3984032	1	144.5218	-0.1579475	-1.55025E-006	0.0001156	10	0.0006649	0.0954406	0
	34	63	400.1524	144.5523	-0.3732853	1	144.5528	-0.1479577	-1.596613E-006	0.0001145	10	0.0007133	0.1026317	0
	35	65	315.5048	144.5906	-0.3513543	1	144.591	-0.1392282	-1.566299E-006	0.0001153	10	0.0007015	0.1011288	0
	36	66	252.0161	144.6195	-0.3326395	1	144.6199	-0.1317859	-1.592399E-006	0.0001145	10	0.0006953	0.1003627	0
	37	68	200.3205	144.6553	-0.3200486	1	144.6556	-0.1267662	-1.528456E-006	0.0001162	10	0.0006925	0.1000494	0
	38	70	158.0056	144.6871	-0.3045964	1	144.6875	-0.1206193	-1.579362E-006	0.0001144	10	0.0006894	0.0996719	0
	39	71	125.558	144.7198	-0.2905269	1	144.7201	-0.1150218	-1.582384E-006	0.0001179	10	0.0006853	0.0991293	0
	40	73	99.734	144.7543	-0.2804007	1	144.7546	-0.1109863	-1.550324E-006	0.0001142	10	0.0006762	0.0978553	0
	41	75	79.44915	144.788	-0.2518552	1	144.7882	-0.0996645	-1.568639E-006	0.0001118	10	0.0007108	0.1028911	0
	42	77	62.91946	144.8201	-0.2534229	1	144.8204	-0.1002626	-1.563197E-006	0.0001128	10	0.0006907	0.1000109	0
	43	78	49.86702	144.8492	-0.2393329	1	144.8494	-0.0946691	-1.602121E-006	0.0001147	10	0.0006906	0.1000298	0
	44	80	38.42213	144.8783	-0.2196551	1	144.8784	-0.0868681	-1.639749E-006	0.0001135	10	0.0006903	0.1000025	0
	45	82	31.25	144.9022	-0.2198691	1	144.9023	-0.0869384	-1.598804E-006	0.0001145	10	0.0006901	0.1000008	0
	46	84	24.93351	144.9266	-0.209786	1	144.9268	-0.0829374	-1.645382E-006	0.0001144	10	0.00069	0.0999982	0
	47	86	20.03205	144.9495	-0.2011702	1	144.9497	-0.0795187	-1.70002E-006	0.0001114	10	0.0006899	0.1000005	0
	48	88	15.625	144.9696	-0.194054	1	144.9698	-0.0766952	-1.795062E-006	0.0001133	10	0.0006898	0.0999997	0
	49	90	12.46675	144.9828	-0.1885349	1	144.983	-0.0745071	-1.786842E-006	0.0001129	10	0.0006897	0.1000004	0
	50	92	9.9734	144.9867	-0.1853923	1	144.9868	-0.0732632	-1.794064E-006	0.000115	10	0.0006897	0.0999997	0
	51	94	7.971939	144.9818	-0.1815816	1	144.9819	-0.0717597	-1.767778E-006	0.0001141	10	0.0006897	0.0999993	0
	52	96	6.351626	144.9795	-0.1782815	1	144.9796	-0.0704567	-1.769148E-006	0.0001146	10	0.0006898	0.1	0
	53	99	5.013369	144.975	-0.1758406	1	144.9751	-0.0694942	-1.849707E-006	0.0001119	10	0.0006898	0.0999998	0
	54	101	3.985969	144.9642	-0.1751319	1	144.9643	-0.0692192	-1.827029E-006	0.000115	10	0.0006898	0.0999996	0
	55	104	3.175813	144.9597	-0.173996	1	144.9598	-0.0687724	-1.857845E-006	0.0001141	10	0.0006898	0.1000001	0
	56	107	2.516103	144.9634	-0.1547653	1	144.9634	-0.0611699	-1.785434E-006	0.0001162	10	0.0006646	0.0964883	0
	57	111	1.99553	144.9501	-0.1550262	1	144.9502	-0.0612786	-1.538913E-006	0.0001163	10	0.0007037	0.1020732	0
	58	116	1.587906	144.9555	-0.1598631	1	144.9556	-0.0631882	-1.51217E-006	0.0001165	10	0.0006955	0.1008563	0
	59	121	1.258052	144.95	-0.1617699	1	144.9501	-0.0639443	-1.588793E-006	0.0001164	10	0.0006923	0.1003664	0
	60	127	0.997765	144.9623	-0.16248	1	144.9624	-0.0642196	-1.635821E-006	0.0001164	10	0.0006908	0.1001544	0
	61	133	0.7927448	144.9726	-0.1591355	1	144.9727	-0.0628932	-1.582495E-006	0.0001165	10	0.0006902	0.1000681	0
	62	140	0.6290258	145.0027	-0.1582018	1	145.0028	-0.0625112	-1.577623E-006	0.0001164	10	0.0006898	0.1000314	0
	63	148	0.4988825	145.0479	-0.1508792	1	145.048	-0.0595992	-1.515851E-006	0.0001162	10	0.0006895	0.1000158	0
	64	158	0.3985969	145.0827	-0.1470218	1	145.0828	-0.0580616	-1.576868E-006	0.0001179	10	0.0006893	0.1000091	0
