EXPLAIN
TAG	EISPOT
TITLE	LABEL	Potentiostatic EIS	Test Identifier
DATE	LABEL	2025/12/23	Date
TIME	LABEL	23:13:28	Time
NOTES	NOTES	1	Notes...
	
PSTAT	PSTAT	IFC1000-11123	Potentiostat
VDC	POTEN	0.00000E+000	T	DC Voltage (V)
FREQINIT	QUANT	1.00000E+006	Initial Freq. (Hz)
FREQFINAL	QUANT	5.00000E-001	Final Freq. (Hz)
PTSPERDEC	QUANT	1.00000E+001	Points/decade
VAC	QUANT	1.00000E+002	AC Voltage (mV rms)
AREA	QUANT	7.85000E-001	Sample Area (cm^2)
SPEED	SELECTOR	1	Optimize for:
DRIFTCOR	SELECTOR	0	Drift Correction
THD	SELECTOR	0	THD
ZGUESS	QUANT	1.00000E+002	Estimated Z (ohms)
EOC	QUANT	-8.076532E-006	Open Circuit (V)
SEQUENCER	TOGGLE	TRUE	Run as Sequence
PSTATMODEL	IQUANT	48	Pstat Model
PSTATSECTION	LABEL	IFC1000-11123	Pstat Section
PSTATSERIALNO	LABEL	11123	Pstat Serial Number
CTRLMODE	IQUANT	1	Control Mode
ELECTROMETER	IQUANT	0	RE=0 or CS=1
IESTAB	IQUANT	0	I/E Stability
CASPEED	IQUANT	3	Control Amp Speed
CONVENTION	IQUANT	1	Current Convention
ICHRANGE	IQUANT	2	Ich Range
ICHRANGEMODE	TOGGLE	F	Ich Auto Range
ICHOFFSETENABLE	TOGGLE	T	Ich Offset Enable
ICHOFFSET	QUANT	0	Ich Offset (V)
ICHFILTER	IQUANT	4	Ich Filter
VCHRANGE	IQUANT	2	Vch Range
VCHRANGEMODE	TOGGLE	F	Vch Auto Range
VCHOFFSETENABLE	TOGGLE	T	Vch Offset Enable
VCHOFFSET	QUANT	0	Vch Offset (V)
VCHFILTER	IQUANT	4	Vch Filter
IERANGELOWERLIMIT	IQUANT	4	I/E Range Lower Limit
IERANGEMODE	TOGGLE	F	I/E AutoRange
IERANGE	IQUANT	11	I/E Range
ACHSELECT	IQUANT	0	Ach Select
ACHRANGE	IQUANT	2	Ach Range
ACHOFFSETENABLE	TOGGLE	F	Ach Offset Enable
ACHOFFSET	QUANT	0	Ach Offset (V)
ACHFILTER	IQUANT	1	Ach Filter
SENSECABLEID	IQUANT	14	Sense Cable ID
PWRCABLEID	IQUANT	14	Power Cable ID
DCCALDATE	LABEL	5/23/2025	DC Calibration Date
ACCALDATE	LABEL	4/29/2023	AC Calibration Date
FRAMEWORKVERSION	LABEL	7.10.0	Framework Version
INSTRUMENTVERSION	LABEL	4.72	Instrument Version
COMMVERSION	LABEL	3.10	Communications Version
CPUPLDVERSION	LABEL	1.10	CPU PLD Version
CTRLPLDVERSION	LABEL	0.00	CTRL PLD Version
PSTATPLDVERSION	LABEL	0.00	PSTAT PLD Version
ZCURVE	TABLE
	Pt	Time	Freq	Zreal	Zimag	Zsig	Zmod	Zphz	Idc	Vdc	IERange	Imod	Vmod	Temp
	#	s	Hz	ohm	ohm	V	ohm	°	A	V	#	A	V	°C
	0	4	1000020	121.4495	-2.872217	1	121.4834	-1.354763	-1.200643E-005	0.000273	10	0.0008574	0.1000082	0
	1	6	794355.5	122.5355	-4.005109	1	122.6009	-1.872063	-1.180382E-005	0.0002678	10	0.0012658	0.1505348	0
	2	8	630996.1	123.7125	-4.9596	1	123.8119	-2.295743	-1.221054E-005	0.0002703	10	0.0011259	0.1362271	0
	3	9	501269.5	124.974	-5.795444	1	125.1083	-2.655087	-1.244472E-005	0.0002568	10	0.0010419	0.1280658	0
	4	11	398144.5	126.2991	-6.514182	1	126.467	-2.952553	-1.261128E-005	0.0002512	10	0.0009865	0.1230288	0
	5	13	316230.5	127.6759	-7.0653	1	127.8712	-3.16739	-1.274083E-005	0.000244	10	0.0009385	0.1186575	0
	6	15	251191.4	129.1099	-7.498842	1	129.3275	-3.324066	-1.28172E-005	0.000236	10	0.0008975	0.1150066	0
	7	16	199628.9	130.5884	-7.790565	1	130.8206	-3.41407	-1.30362E-005	0.0002143	10	0.0008561	0.1111469	0
	8	18	158496.1	132.0956	-7.912553	1	132.3323	-3.427934	-1.289614E-005	0.0002246	10	0.0008234	0.1083017	0
	9	20	125918	133.5757	-7.922949	1	133.8104	-3.394483	-1.29097E-005	0.0002194	10	0.000793	0.1056017	0
	10	22	100019.5	135.0665	-7.752926	1	135.2888	-3.285219	-1.80673E-006	0.0001003	10	0.0007496	0.1010053	0
	11	24	79511.72	136.4233	-7.472292	1	136.6278	-3.13512	-1.869545E-006	0.000098	10	0.0007649	0.1042331	0
	12	25	63105.47	137.7418	-7.049984	1	137.9221	-2.929991	-1.850578E-006	9.411818E-005	10	0.0007425	0.1022306	0
	13	27	50214.84	138.9185	-6.52415	1	139.0716	-2.688856	-1.981737E-006	9.186519E-005	10	0.0007286	0.101212	0
	14	29	39902.34	139.9558	-5.920807	1	140.081	-2.422443	-1.953172E-006	9.089598E-005	10	0.000719	0.100649	0
	15	31	31699.22	140.8407	-5.274592	1	140.9394	-2.144769	-1.949013E-006	8.991908E-005	10	0.0007125	0.1003729	0
	16	33	25136.72	141.5669	-4.617016	1	141.6422	-1.867963	-1.939788E-006	9.189826E-005	10	0.0007077	0.1002119	0
	17	34	19980.47	142.1528	-3.991091	1	142.2088	-1.608217	-1.974523E-006	9.021623E-005	10	0.0007044	0.1001479	0
	18	36	15878.91	142.6004	-3.411557	1	142.6412	-1.370477	-1.806838E-006	8.982481E-005	10	0.0007016	0.1000651	0
	19	38	12597.66	142.9599	-2.880429	1	142.9889	-1.154268	-1.769171E-006	8.830859E-005	10	0.0006997	0.1000434	0
	20	40	10019.53	143.2341	-2.427942	1	143.2547	-0.97112	-1.737715E-006	9.182993E-005	10	0.0006981	0.1000036	0
	21	41	7928.241	143.4529	-2.021569	1	143.4671	-0.8073711	4.450158E-008	0.000146	10	0.0006972	0.1000181	0
	22	43	6307.871	143.6219	-1.689424	1	143.6318	-0.673939	5.873562E-008	0.0001474	10	0.0006964	0.1000256	0
	23	45	5034.722	143.7435	-1.425067	1	143.7506	-0.5680094	-1.604076E-006	0.0001188	10	0.0006769	0.0970574	0
	24	47	3993.056	143.8418	-1.192376	1	143.8468	-0.474942	-1.621934E-006	0.0001196	10	0.0007085	0.1017618	0
	25	48	3144.055	143.9244	-0.996856	1	143.9278	-0.3968386	-1.626025E-006	0.0001188	10	0.0007005	0.10074	0
	26	50	2519.531	143.9874	-0.8522319	1	143.9899	-0.3391181	-1.573431E-006	0.000118	10	0.0006967	0.1002715	0
	27	52	2000.762	144.0402	-0.7302261	1	144.0421	-0.2904641	-1.609307E-006	0.0001199	10	0.0006952	0.1001104	0
	28	54	1580.669	144.0912	-0.6333981	1	144.0926	-0.25186	-1.652572E-006	0.0001186	10	0.0006946	0.1000662	0
	29	55	1253.634	144.1392	-0.5588033	1	144.1403	-0.222125	-1.621539E-006	0.000119	10	0.000694	0.1000182	0
	30	57	1000.702	144.1856	-0.5016677	1	144.1865	-0.1993494	-1.656762E-006	0.0001182	10	0.0006935	0.0999888	0
	31	59	790.0281	144.2239	-0.4547964	1	144.2246	-0.1806763	-1.678449E-006	0.0001202	10	0.0006933	0.0999803	0
	32	60	628.811	144.2661	-0.4227113	1	144.2667	-0.1678808	-1.696355E-006	0.0001178	10	0.0006932	0.1000011	0
	33	62	502.2321	144.3196	-0.4010185	1	144.3202	-0.1592064	-1.766957E-006	0.0001178	10	0.0006658	0.0954411	0
	34	64	400.1524	144.3521	-0.3734843	1	144.3526	-0.1482419	-1.773007E-006	0.0001178	10	0.0007143	0.1026369	0
	35	65	315.5048	144.3844	-0.3545037	1	144.3848	-0.1406767	-1.801109E-006	0.0001165	10	0.0007025	0.1011305	0
	36	67	252.0161	144.4175	-0.3364704	1	144.4179	-0.13349	-1.914254E-006	0.0001142	10	0.0006963	0.1003658	0
	37	69	200.3205	144.4525	-0.3205143	1	144.4529	-0.1271289	-1.947337E-006	0.0001145	10	0.0006935	0.1000508	0
	38	71	158.0056	144.4924	-0.3072014	1	144.4927	-0.1218148	-1.926238E-006	0.0001147	10	0.0006903	0.0996738	0
	39	72	125.558	144.5239	-0.2928658	1	144.5242	-0.116105	-1.943906E-006	0.0001186	10	0.000686	0.0990993	0
	40	74	99.734	144.5589	-0.281002	1	144.5592	-0.1113747	-1.96669E-006	0.0001163	10	0.0006774	0.0978873	0
	41	76	79.44915	144.5927	-0.2548257	1	144.593	-0.1009762	-2.071841E-006	0.0001164	10	0.0007117	0.1028855	0
	42	78	62.91946	144.6261	-0.255942	1	144.6263	-0.1013951	-2.013418E-006	0.0001123	10	0.0006916	0.1000082	0
	43	79	49.86702	144.6584	-0.2403807	1	144.6586	-0.0952091	-2.00008E-006	0.0001139	10	0.0006915	0.1000286	0
	44	81	38.42213	144.6918	-0.221858	1	144.6919	-0.0878524	-2.11793E-006	0.000114	10	0.0006912	0.1000045	0
	45	83	31.25	144.715	-0.2201822	1	144.7152	-0.0871748	-2.09155E-006	0.0001143	10	0.000691	0.1000003	0
	46	85	24.93351	144.7413	-0.2104397	1	144.7415	-0.0833024	-2.192248E-006	0.0001139	10	0.0006909	0.0999996	0
	47	87	20.03205	144.7693	-0.2020386	1	144.7694	-0.0799614	-2.184215E-006	0.0001109	10	0.0006908	0.099999	0
	48	88	15.625	144.7941	-0.1940845	1	144.7942	-0.0768002	-2.158258E-006	0.0001151	10	0.0006906	0.1000004	0
	49	90	12.46675	144.8133	-0.1887957	1	144.8134	-0.0746975	-2.155375E-006	0.0001144	10	0.0006905	0.0999994	0
	50	93	9.9734	144.8321	-0.1833669	1	144.8322	-0.0725402	-2.103334E-006	0.0001142	10	0.0006905	0.1000004	0
	51	95	7.971939	144.8522	-0.1822449	1	144.8523	-0.0720863	-1.974218E-006	0.0001137	10	0.0006904	0.0999997	0
	52	97	6.351626	144.8739	-0.1767661	1	144.874	-0.0699087	-1.939743E-006	0.0001151	10	0.0006902	0.0999989	0
	53	99	5.013369	144.8963	-0.1769029	1	144.8965	-0.069952	-2.014483E-006	0.0001121	10	0.0006902	0.1000003	0
	54	102	3.985969	144.9102	-0.1752115	1	144.9104	-0.0692765	-2.004252E-006	0.0001133	10	0.0006901	0.0999996	0
	55	105	3.175813	144.9138	-0.1744405	1	144.9139	-0.06897	-2.028254E-006	0.0001141	10	0.0006901	0.1	0
	56	108	2.516103	144.9272	-0.1581898	1	144.9273	-0.062539	-1.92812E-006	0.0001158	10	0.0006647	0.0964887	0
	57	112	1.99553	144.9266	-0.1546038	1	144.9267	-0.0611215	-1.852589E-006	0.0001166	10	0.0007038	0.1020732	0
	58	117	1.587906	144.955	-0.1605026	1	144.9551	-0.0634412	-1.778118E-006	0.0001176	10	0.0006955	0.1008565	0
	59	122	1.258052	144.9831	-0.1627741	1	144.9832	-0.0643266	-1.780696E-006	0.0001166	10	0.0006921	0.1003664	0
	60	128	0.997765	144.9923	-0.1614792	1	144.9924	-0.0638108	-1.709337E-006	0.0001172	10	0.0006907	0.1001547	0
	61	134	0.7927448	145.0021	-0.1571661	1	145.0022	-0.0621022	-1.71012E-006	0.0001166	10	0.0006901	0.1000678	0
	62	141	0.6290258	145.0153	-0.1526832	1	145.0154	-0.0603254	-1.390687E-006	0.0001164	10	0.0006898	0.1000312	0
	63	149	0.4988825	145.0388	-0.1509361	1	145.0389	-0.0596254	-1.409072E-006	0.0001186	10	0.0006896	0.100016	0
	64	159	0.3985969	145.0914	-0.143523	1	145.0915	-0.0566764	-1.494727E-006	0.0001174	10	0.0006893	0.1000081	0
