EXPLAIN
TAG	EISPOT
TITLE	LABEL	Potentiostatic EIS	Test Identifier
DATE	LABEL	2025/12/23	Date
TIME	LABEL	21:48:26	Time
NOTES	NOTES	1	Notes...
	
PSTAT	PSTAT	IFC1000-11123	Potentiostat
VDC	POTEN	0.00000E+000	T	DC Voltage (V)
FREQINIT	QUANT	1.00000E+006	Initial Freq. (Hz)
FREQFINAL	QUANT	5.00000E-001	Final Freq. (Hz)
PTSPERDEC	QUANT	1.00000E+001	Points/decade
VAC	QUANT	1.00000E+002	AC Voltage (mV rms)
AREA	QUANT	7.85000E-001	Sample Area (cm^2)
SPEED	SELECTOR	1	Optimize for:
DRIFTCOR	SELECTOR	0	Drift Correction
THD	SELECTOR	0	THD
ZGUESS	QUANT	1.00000E+002	Estimated Z (ohms)
EOC	QUANT	-9.938858E-006	Open Circuit (V)
SEQUENCER	TOGGLE	TRUE	Run as Sequence
PSTATMODEL	IQUANT	48	Pstat Model
PSTATSECTION	LABEL	IFC1000-11123	Pstat Section
PSTATSERIALNO	LABEL	11123	Pstat Serial Number
CTRLMODE	IQUANT	1	Control Mode
ELECTROMETER	IQUANT	0	RE=0 or CS=1
IESTAB	IQUANT	0	I/E Stability
CASPEED	IQUANT	3	Control Amp Speed
CONVENTION	IQUANT	1	Current Convention
ICHRANGE	IQUANT	2	Ich Range
ICHRANGEMODE	TOGGLE	F	Ich Auto Range
ICHOFFSETENABLE	TOGGLE	T	Ich Offset Enable
ICHOFFSET	QUANT	0	Ich Offset (V)
ICHFILTER	IQUANT	4	Ich Filter
VCHRANGE	IQUANT	2	Vch Range
VCHRANGEMODE	TOGGLE	F	Vch Auto Range
VCHOFFSETENABLE	TOGGLE	T	Vch Offset Enable
VCHOFFSET	QUANT	0	Vch Offset (V)
VCHFILTER	IQUANT	4	Vch Filter
IERANGELOWERLIMIT	IQUANT	4	I/E Range Lower Limit
IERANGEMODE	TOGGLE	F	I/E AutoRange
IERANGE	IQUANT	11	I/E Range
ACHSELECT	IQUANT	0	Ach Select
ACHRANGE	IQUANT	2	Ach Range
ACHOFFSETENABLE	TOGGLE	F	Ach Offset Enable
ACHOFFSET	QUANT	0	Ach Offset (V)
ACHFILTER	IQUANT	1	Ach Filter
SENSECABLEID	IQUANT	14	Sense Cable ID
PWRCABLEID	IQUANT	14	Power Cable ID
DCCALDATE	LABEL	5/23/2025	DC Calibration Date
ACCALDATE	LABEL	4/29/2023	AC Calibration Date
FRAMEWORKVERSION	LABEL	7.10.0	Framework Version
INSTRUMENTVERSION	LABEL	4.72	Instrument Version
COMMVERSION	LABEL	3.10	Communications Version
CPUPLDVERSION	LABEL	1.10	CPU PLD Version
CTRLPLDVERSION	LABEL	0.00	CTRL PLD Version
PSTATPLDVERSION	LABEL	0.00	PSTAT PLD Version
ZCURVE	TABLE
	Pt	Time	Freq	Zreal	Zimag	Zsig	Zmod	Zphz	Idc	Vdc	IERange	Imod	Vmod	Temp
	#	s	Hz	ohm	ohm	V	ohm	°	A	V	#	A	V	°C
	0	4	1000020	121.5392	-2.745854	1	121.5702	-1.294225	-1.215299E-005	0.0002664	10	0.0008578	0.1001298	0
	1	6	794355.5	122.6153	-3.862884	1	122.6761	-1.804454	-1.212467E-005	0.0002686	10	0.0012652	0.1505478	0
	2	8	630996.1	123.7797	-4.837079	1	123.8742	-2.237873	-1.238622E-005	0.0002705	10	0.0011235	0.1360043	0
	3	9	501269.5	125.0103	-5.696405	1	125.14	-2.60902	-1.272111E-005	0.0002591	10	0.0010419	0.1280959	0
	4	11	398144.5	126.3216	-6.407609	1	126.484	-2.903815	-1.278915E-005	0.0002474	10	0.0009867	0.1230638	0
	5	13	316230.5	127.6825	-6.978432	1	127.8731	-3.128363	-1.2935E-005	0.0002406	10	0.0009387	0.1186874	0
	6	15	251191.4	129.0747	-7.420926	1	129.2878	-3.290499	-1.305338E-005	0.0002323	10	0.0008981	0.1150388	0
	7	16	199628.9	130.56	-7.674567	1	130.7854	-3.364084	-1.309643E-005	0.0002149	10	0.0008565	0.1111695	0
	8	18	158496.1	132.0547	-7.80651	1	132.2852	-3.383145	-1.304962E-005	0.000227	10	0.0008236	0.1082807	0
	9	20	125918	133.5216	-7.769349	1	133.7475	-3.330169	-1.306994E-005	0.000218	10	0.0007934	0.105604	0
	10	22	100019.5	134.9864	-7.587381	1	135.1995	-3.217123	-2.015802E-006	0.0000994	10	0.0007501	0.101003	0
	11	24	79511.72	136.3136	-7.280422	1	136.5079	-3.057226	-1.9664E-006	0.0000977	10	0.0007655	0.1042274	0
	12	25	63105.47	137.5881	-6.843927	1	137.7582	-2.847668	-2.033414E-006	9.298514E-005	10	0.0007433	0.1022246	0
	13	27	50214.84	138.7178	-6.310049	1	138.8612	-2.604497	-2.09834E-006	9.177171E-005	10	0.0007296	0.1012023	0
	14	29	39902.34	139.7159	-5.698168	1	139.8321	-2.335454	-2.094973E-006	9.043491E-005	10	0.0007205	0.1006725	0
	15	31	31699.22	140.5518	-5.0655	1	140.6431	-2.064052	-2.066657E-006	9.120168E-005	10	0.0007139	0.100364	0
	16	32	25136.72	141.2483	-4.415152	1	141.3173	-1.790374	-2.031342E-006	9.214279E-005	10	0.0007095	0.1002385	0
	17	34	19980.47	141.7909	-3.805386	1	141.842	-1.537335	-2.047571E-006	8.977426E-005	10	0.0007059	0.1001128	0
	18	36	15878.91	142.2181	-3.246892	1	142.2551	-1.307857	-2.049511E-006	8.891546E-005	10	0.0007035	0.1000588	0
	19	38	12597.66	142.5425	-2.73352	1	142.5687	-1.098619	-1.886126E-006	9.143911E-005	10	0.0007017	0.1000367	0
	20	39	10019.53	142.7908	-2.297848	1	142.8092	-0.9219477	-1.857827E-006	9.221071E-005	10	0.0007005	0.1000328	0
	21	41	7928.241	142.9905	-1.914274	1	143.0034	-0.7669966	-3.164996E-008	0.0001434	10	0.0006994	0.1000125	0
	22	43	6307.871	143.1413	-1.597477	1	143.1502	-0.6394022	-9.561222E-008	0.0001438	10	0.0006987	0.1000223	0
	23	45	5034.722	143.2469	-1.348454	1	143.2533	-0.5393373	-1.607027E-006	0.0001185	10	0.0006792	0.0970547	0
	24	46	3993.056	143.3325	-1.128557	1	143.3369	-0.4511204	-1.614961E-006	0.0001179	10	0.0007109	0.1017565	0
	25	48	3144.055	143.4074	-0.9443757	1	143.4105	-0.3773025	-1.580905E-006	0.0001192	10	0.000703	0.100735	0
	26	50	2519.531	143.4702	-0.807157	1	143.4724	-0.3223402	-1.570812E-006	0.0001168	10	0.0006994	0.1002972	0
	27	52	2000.762	143.5262	-0.6932763	1	143.5279	-0.2767543	-1.522121E-006	0.0001185	10	0.0006977	0.1001061	0
	28	53	1580.669	143.5814	-0.6009501	1	143.5826	-0.2398062	-1.586032E-006	0.0001193	10	0.000697	0.100061	0
	29	55	1253.634	143.6311	-0.531202	1	143.6321	-0.2119005	-1.613852E-006	0.0001192	10	0.0006964	0.1000134	0
	30	57	1000.702	143.6767	-0.4760462	1	143.6775	-0.1898383	-1.651831E-006	0.0001196	10	0.0006959	0.0999849	0
	31	59	790.0281	143.7217	-0.4306557	1	143.7223	-0.1716838	-1.70642E-006	0.0001197	10	0.0006959	0.1000088	0
	32	60	628.811	143.7603	-0.3962317	1	143.7608	-0.1579181	-1.705448E-006	0.0001184	10	0.0006956	0.099996	0
	33	62	502.2321	143.8115	-0.3732631	1	143.812	-0.148711	-1.713661E-006	0.0001166	10	0.0006681	0.0954367	0
	34	64	400.1524	143.8486	-0.3468491	1	143.849	-0.1381518	-1.810714E-006	0.0001167	10	0.0007168	0.10263	0
	35	65	315.5048	143.8903	-0.3254147	1	143.8907	-0.1295769	-1.819738E-006	0.0001155	10	0.0007049	0.1011255	0
	36	67	252.0161	143.9267	-0.3090198	1	143.9271	-0.1230175	-1.812718E-006	0.0001153	10	0.0006986	0.1003604	0
	37	69	200.3205	143.9579	-0.2920612	1	143.9582	-0.1162413	-1.897637E-006	0.0001139	10	0.0006958	0.1000453	0
	38	71	158.0056	143.9858	-0.2782199	1	143.9861	-0.110711	-1.871103E-006	0.0001124	10	0.0006927	0.0996665	0
	39	72	125.558	144.0075	-0.2649036	1	144.0078	-0.1053961	-1.844658E-006	0.0001154	10	0.0006886	0.0991208	0
	40	74	99.734	144.0311	-0.2545625	1	144.0314	-0.1012652	-1.765051E-006	0.0001143	10	0.0006797	0.0978744	0
	41	76	79.44915	144.0474	-0.227551	1	144.0476	-0.0905098	-1.835705E-006	0.000115	10	0.0007145	0.1029001	0
	42	77	62.91946	144.0677	-0.2319057	1	144.0679	-0.0922289	-1.943785E-006	0.0001107	10	0.0006943	0.1000112	0
	43	79	49.86702	144.0817	-0.2166898	1	144.0819	-0.0861692	-1.918711E-006	0.0001139	10	0.0006943	0.1000287	0
	44	81	38.42213	144.0934	-0.2016282	1	144.0935	-0.0801733	-1.786415E-006	0.0001145	10	0.000694	0.1000009	0
	45	83	31.25	144.0968	-0.2055284	1	144.097	-0.0817221	-1.798683E-006	0.0001138	10	0.000694	0.1000014	0
	46	85	24.93351	144.1061	-0.1978946	1	144.1062	-0.0786818	-1.812439E-006	0.0001138	10	0.0006939	0.1000002	0
	47	86	20.03205	144.117	-0.1881611	1	144.1172	-0.0748061	-1.815034E-006	0.0001112	10	0.0006939	0.0999991	0
	48	88	15.625	144.1375	-0.1863539	1	144.1376	-0.0740771	-1.767881E-006	0.0001133	10	0.0006938	0.0999999	0
	49	90	12.46675	144.1597	-0.1842229	1	144.1599	-0.0732187	-1.762985E-006	0.0001141	10	0.0006937	0.1	0
	50	92	9.9734	144.1833	-0.1809263	1	144.1834	-0.0718967	-1.78313E-006	0.0001134	10	0.0006936	0.0999995	0
	51	95	7.971939	144.2031	-0.1786915	1	144.2032	-0.0709989	-1.781336E-006	0.0001136	10	0.0006935	0.0999992	0
	52	97	6.351626	144.226	-0.1763109	1	144.2261	-0.0700419	-1.820304E-006	0.0001138	10	0.0006934	0.1000005	0
	53	99	5.013369	144.2496	-0.1772256	1	144.2497	-0.0703938	-1.852125E-006	0.000111	10	0.0006932	0.0999999	0
	54	102	3.985969	144.2696	-0.177802	1	144.2697	-0.0706129	-1.818965E-006	0.0001119	10	0.0006931	0.0999997	0
	55	105	3.175813	144.281	-0.1768264	1	144.2811	-0.0702199	-1.822689E-006	0.0001127	10	0.0006931	0.0999998	0
	56	108	2.516103	144.3092	-0.1607589	1	144.3093	-0.0638269	-1.869995E-006	0.0001155	10	0.0006676	0.0964904	0
	57	112	1.99553	144.3215	-0.1588713	1	144.3216	-0.063072	-1.907762E-006	0.0001158	10	0.0007067	0.1020731	0
	58	117	1.587906	144.3534	-0.1646169	1	144.3535	-0.0653386	-1.844117E-006	0.0001161	10	0.0006984	0.100856	0
	59	122	1.258052	144.3639	-0.1656106	1	144.364	-0.0657282	-1.857949E-006	0.0001173	10	0.0006951	0.1003667	0
	60	128	0.997765	144.3594	-0.166132	1	144.3595	-0.0659372	-1.852944E-006	0.0001158	10	0.0006937	0.1001548	0
	61	134	0.7927448	144.3596	-0.1616035	1	144.3597	-0.0641398	-1.833261E-006	0.0001162	10	0.0006931	0.1000669	0
	62	141	0.6290258	144.37	-0.1583637	1	144.3701	-0.0628494	-1.608257E-006	0.0001164	10	0.0006929	0.1000319	0
	63	149	0.4988825	144.3708	-0.1513863	1	144.3708	-0.06008	-1.590751E-006	0.0001159	10	0.0006928	0.1000155	0
	64	159	0.3985969	144.3554	-0.1470513	1	144.3554	-0.0583658	-1.421319E-006	0.0001165	10	0.0006928	0.1000084	0
