EXPLAIN
TAG	EISPOT
TITLE	LABEL	Potentiostatic EIS	Test Identifier
DATE	LABEL	2025/12/24	Date
TIME	LABEL	1:16:18	Time
NOTES	NOTES	1	Notes...
	
PSTAT	PSTAT	IFC1000-11123	Potentiostat
VDC	POTEN	0.00000E+000	T	DC Voltage (V)
FREQINIT	QUANT	1.00000E+006	Initial Freq. (Hz)
FREQFINAL	QUANT	5.00000E-001	Final Freq. (Hz)
PTSPERDEC	QUANT	1.00000E+001	Points/decade
VAC	QUANT	1.00000E+002	AC Voltage (mV rms)
AREA	QUANT	7.85000E-001	Sample Area (cm^2)
SPEED	SELECTOR	1	Optimize for:
DRIFTCOR	SELECTOR	0	Drift Correction
THD	SELECTOR	0	THD
ZGUESS	QUANT	1.00000E+002	Estimated Z (ohms)
EOC	QUANT	-7.646458E-006	Open Circuit (V)
SEQUENCER	TOGGLE	TRUE	Run as Sequence
PSTATMODEL	IQUANT	48	Pstat Model
PSTATSECTION	LABEL	IFC1000-11123	Pstat Section
PSTATSERIALNO	LABEL	11123	Pstat Serial Number
CTRLMODE	IQUANT	1	Control Mode
ELECTROMETER	IQUANT	0	RE=0 or CS=1
IESTAB	IQUANT	0	I/E Stability
CASPEED	IQUANT	3	Control Amp Speed
CONVENTION	IQUANT	1	Current Convention
ICHRANGE	IQUANT	2	Ich Range
ICHRANGEMODE	TOGGLE	F	Ich Auto Range
ICHOFFSETENABLE	TOGGLE	T	Ich Offset Enable
ICHOFFSET	QUANT	0	Ich Offset (V)
ICHFILTER	IQUANT	4	Ich Filter
VCHRANGE	IQUANT	2	Vch Range
VCHRANGEMODE	TOGGLE	F	Vch Auto Range
VCHOFFSETENABLE	TOGGLE	T	Vch Offset Enable
VCHOFFSET	QUANT	0	Vch Offset (V)
VCHFILTER	IQUANT	4	Vch Filter
IERANGELOWERLIMIT	IQUANT	4	I/E Range Lower Limit
IERANGEMODE	TOGGLE	F	I/E AutoRange
IERANGE	IQUANT	11	I/E Range
ACHSELECT	IQUANT	0	Ach Select
ACHRANGE	IQUANT	2	Ach Range
ACHOFFSETENABLE	TOGGLE	F	Ach Offset Enable
ACHOFFSET	QUANT	0	Ach Offset (V)
ACHFILTER	IQUANT	1	Ach Filter
SENSECABLEID	IQUANT	14	Sense Cable ID
PWRCABLEID	IQUANT	14	Power Cable ID
DCCALDATE	LABEL	5/23/2025	DC Calibration Date
ACCALDATE	LABEL	4/29/2023	AC Calibration Date
FRAMEWORKVERSION	LABEL	7.10.0	Framework Version
INSTRUMENTVERSION	LABEL	4.72	Instrument Version
COMMVERSION	LABEL	3.10	Communications Version
CPUPLDVERSION	LABEL	1.10	CPU PLD Version
CTRLPLDVERSION	LABEL	0.00	CTRL PLD Version
PSTATPLDVERSION	LABEL	0.00	PSTAT PLD Version
ZCURVE	TABLE
	Pt	Time	Freq	Zreal	Zimag	Zsig	Zmod	Zphz	Idc	Vdc	IERange	Imod	Vmod	Temp
	#	s	Hz	ohm	ohm	V	ohm	°	A	V	#	A	V	°C
	0	3	1000020	122.2992	-3.295953	1	122.3436	-1.543743	-1.20745E-005	0.0002694	10	0.0008525	0.100142	0
	1	5	794355.5	123.4338	-4.382087	1	123.5116	-2.033233	-1.186971E-005	0.0002648	10	0.0012558	0.1504502	0
	2	7	630996.1	124.6603	-5.323409	1	124.7739	-2.445235	-1.226847E-005	0.0002666	10	0.0011166	0.1361548	0
	3	9	501269.5	125.9554	-6.124572	1	126.1043	-2.783809	-1.259218E-005	0.0002575	10	0.0010325	0.1279123	0
	4	11	398144.5	127.2913	-6.802379	1	127.4729	-3.058947	-1.272005E-005	0.000248	10	0.0009797	0.1231548	0
	5	12	316230.5	128.7138	-7.37512	1	128.925	-3.279381	-1.280282E-005	0.0002361	10	0.0009316	0.1187524	0
	6	14	251191.4	130.1479	-7.790729	1	130.3809	-3.425671	-1.29866E-005	0.0002313	10	0.0008873	0.1146199	0
	7	16	199628.9	131.652	-8.083403	1	131.8999	-3.513536	-1.308046E-005	0.0002133	10	0.0008495	0.1111959	0
	8	18	158496.1	133.1729	-8.238953	1	133.4275	-3.540183	-1.3029E-005	0.0002253	10	0.000818	0.1084717	0
	9	19	125918	134.7229	-8.23805	1	134.9746	-3.499171	-1.306367E-005	0.0002181	10	0.0007861	0.1056015	0
	10	21	100019.5	136.2503	-8.09323	1	136.4904	-3.39936	-1.953985E-006	0.0001003	10	0.000743	0.1009967	0
	11	23	79511.72	137.6707	-7.837138	1	137.8936	-3.258143	-1.870822E-006	0.0000976	10	0.0007578	0.1042183	0
	12	25	63105.47	139.052	-7.432607	1	139.2505	-3.059661	-1.984075E-006	9.495491E-005	10	0.0007355	0.1022448	0
	13	27	50214.84	140.3046	-6.90693	1	140.4745	-2.818287	-2.016788E-006	9.23819E-005	10	0.0007211	0.1011909	0
	14	28	39902.34	141.4245	-6.298812	1	141.5647	-2.550173	-1.98536E-006	9.188929E-005	10	0.0007118	0.1006866	0
	15	30	31699.22	142.3817	-5.643623	1	142.4935	-2.26986	-1.996538E-006	9.214663E-005	10	0.0007045	0.1003465	0
	16	32	25136.72	143.1759	-4.957684	1	143.2617	-1.983162	-1.826569E-006	9.128093E-005	10	0.0006997	0.1002172	0
	17	34	19980.47	143.815	-4.298784	1	143.8792	-1.712123	-1.785413E-006	8.83289E-005	10	0.000696	0.1001195	0
	18	35	15878.91	144.32	-3.681708	1	144.3669	-1.46134	-1.662905E-006	8.972717E-005	10	0.0006934	0.1000967	0
	19	37	12597.66	144.7135	-3.124588	1	144.7472	-1.236912	-1.676698E-006	8.692069E-005	10	0.000691	0.100012	0
	20	39	10019.53	145.0111	-2.63387	1	145.035	-1.040562	-1.706718E-006	8.784025E-005	10	0.0006898	0.1000381	0
	21	41	7928.241	145.2465	-2.199939	1	145.2631	-0.8677497	1.2193E-007	0.000144	10	0.0006886	0.1000191	0
	22	42	6307.871	145.4138	-1.840852	1	145.4254	-0.7252918	1.208266E-007	0.0001444	10	0.0006876	0.0999982	0
	23	44	5034.722	145.5456	-1.548952	1	145.5538	-0.6097406	-1.53465E-006	0.000116	10	0.0006685	0.0970598	0
	24	46	3993.056	145.6503	-1.294565	1	145.6561	-0.5092413	-1.571975E-006	0.0001179	10	0.0006997	0.1017647	0
	25	48	3144.055	145.7369	-1.082195	1	145.7409	-0.4254521	-1.635567E-006	0.0001153	10	0.0006918	0.10074	0
	26	49	2519.531	145.8052	-0.9227753	1	145.8081	-0.36261	-1.605244E-006	0.0001169	10	0.000688	0.1002707	0
	27	51	2000.762	145.8664	-0.7882786	1	145.8686	-0.3096299	-1.632093E-006	0.0001174	10	0.0006867	0.1001426	0
	28	53	1580.669	145.9213	-0.6811962	1	145.9229	-0.2674686	-1.531857E-006	0.0001203	10	0.0006857	0.100036	0
	29	55	1253.634	145.9651	-0.5993422	1	145.9664	-0.2352588	-1.581619E-006	0.0001196	10	0.0006853	0.1000186	0
	30	56	1000.702	146.0065	-0.5376399	1	146.0075	-0.2109793	-1.597815E-006	0.0001203	10	0.0006849	0.0999875	0
	31	58	790.0281	146.0522	-0.4881854	1	146.053	-0.1915128	-1.559246E-006	0.0001181	10	0.0006848	0.1000142	0
	32	60	628.811	146.0982	-0.4506852	1	146.0989	-0.176746	-1.60916E-006	0.0001176	10	0.0006843	0.0999703	0
	33	62	502.2321	146.1499	-0.4284343	1	146.1506	-0.1679604	-1.668406E-006	0.0001145	10	0.0006575	0.0954433	0
	34	63	400.1524	146.1803	-0.4003283	1	146.1808	-0.1569095	-1.679395E-006	0.0001114	10	0.0007054	0.1026363	0
	35	65	315.5048	146.2267	-0.3775925	1	146.2272	-0.1479511	-1.673338E-006	0.0001151	10	0.0006937	0.1011323	0
	36	67	252.0161	146.2735	-0.3601549	1	146.274	-0.1410735	-1.713592E-006	0.0001112	10	0.0006875	0.1003668	0
	37	68	200.3205	146.3264	-0.3467412	1	146.3269	-0.1357702	-1.687709E-006	0.000113	10	0.0006844	0.1000219	0
	38	70	158.0056	146.3785	-0.3315896	1	146.3789	-0.1297913	-1.72873E-006	0.0001106	10	0.0006817	0.0997063	0
	39	72	125.558	146.4324	-0.3183858	1	146.4328	-0.1245772	-1.746858E-006	0.0001153	10	0.0006771	0.0991019	0
	40	73	99.734	146.4815	-0.3044617	1	146.4818	-0.1190891	-1.800772E-006	0.0001148	10	0.0006683	0.0978614	0
	41	75	79.44915	146.5339	-0.2742372	1	146.5342	-0.1072286	-1.936421E-006	0.0001139	10	0.0007024	0.1029017	0
	42	77	62.91946	146.5819	-0.2739407	1	146.5822	-0.1070775	-1.997784E-006	0.0001114	10	0.0006824	0.100011	0
	43	79	49.86702	146.6279	-0.261463	1	146.6281	-0.1021682	-2.027752E-006	0.000115	10	0.0006822	0.1000288	0
	44	80	38.42213	146.6654	-0.2368662	1	146.6656	-0.0925332	-2.03332E-006	0.0001136	10	0.0006819	0.1000032	0
	45	82	31.25	146.7011	-0.2375464	1	146.7013	-0.0927764	-2.044136E-006	0.0001136	10	0.0006817	0.0999998	0
	46	84	24.93351	146.7291	-0.2246799	1	146.7293	-0.0877345	-1.978316E-006	0.000112	10	0.0006815	0.0999987	0
	47	86	20.03205	146.7598	-0.2124819	1	146.76	-0.0829539	-2.00276E-006	0.0001108	10	0.0006814	0.1000005	0
	48	88	15.625	146.7967	-0.2066758	1	146.7968	-0.080667	-1.871072E-006	0.0001128	10	0.0006812	0.0999996	0
	49	90	12.46675	146.8303	-0.1997964	1	146.8304	-0.077964	-1.805472E-006	0.0001131	10	0.0006811	0.1	0
	50	92	9.9734	146.8637	-0.1932423	1	146.8639	-0.0753893	-1.827055E-006	0.0001144	10	0.0006809	0.1000004	0
	51	94	7.971939	146.8866	-0.1848871	1	146.8867	-0.0721185	-1.82063E-006	0.0001129	10	0.0006808	0.0999994	0
	52	96	6.351626	146.9089	-0.1808765	1	146.909	-0.0705434	-1.724722E-006	0.0001131	10	0.0006807	0.0999993	0
	53	99	5.013369	146.9221	-0.1775788	1	146.9223	-0.069251	-1.757563E-006	0.0001097	10	0.0006806	0.1000006	0
	54	101	3.985969	146.9178	-0.1765631	1	146.9179	-0.068857	-1.713176E-006	0.0001117	10	0.0006807	0.0999996	0
	55	104	3.175813	146.8982	-0.175118	1	146.8983	-0.0683025	-1.711636E-006	0.0001121	10	0.0006807	0.1	0
	56	108	2.516103	146.8768	-0.1563718	1	146.8768	-0.0609997	-1.720354E-006	0.0001154	10	0.0006559	0.0964872	0
	57	112	1.99553	146.8438	-0.1546218	1	146.8439	-0.0603306	-1.780788E-006	0.000116	10	0.0006946	0.1020734	0
	58	116	1.587906	146.8355	-0.1575594	1	146.8356	-0.0614803	-1.725124E-006	0.0001148	10	0.0006866	0.1008562	0
	59	121	1.258052	146.8381	-0.1620026	1	146.8382	-0.0632129	-1.695153E-006	0.0001162	10	0.0006834	0.1003663	0
	60	127	0.997765	146.8532	-0.1593786	1	146.8533	-0.0621826	-1.661509E-006	0.0001164	10	0.0006819	0.1001556	0
	61	133	0.7927448	146.8669	-0.1574526	1	146.867	-0.0614255	-1.681443E-006	0.0001169	10	0.0006813	0.1000677	0
	62	140	0.6290258	146.8766	-0.1529724	1	146.8767	-0.0596737	-1.58602E-006	0.000117	10	0.000681	0.1000315	0
	63	148	0.4988825	146.8861	-0.1453813	1	146.8861	-0.0567088	-1.601208E-006	0.0001153	10	0.0006809	0.1000158	0
	64	158	0.3985969	146.896	-0.1433	1	146.8961	-0.0558931	-1.609704E-006	0.0001162	10	0.0006808	0.1000079	0
