EXPLAIN
TAG	EISPOT
TITLE	LABEL	Potentiostatic EIS	Test Identifier
DATE	LABEL	2025/12/24	Date
TIME	LABEL	3:28:34	Time
NOTES	NOTES	1	Notes...
	
PSTAT	PSTAT	IFC1000-11123	Potentiostat
VDC	POTEN	0.00000E+000	T	DC Voltage (V)
FREQINIT	QUANT	1.00000E+006	Initial Freq. (Hz)
FREQFINAL	QUANT	5.00000E-001	Final Freq. (Hz)
PTSPERDEC	QUANT	1.00000E+001	Points/decade
VAC	QUANT	1.00000E+002	AC Voltage (mV rms)
AREA	QUANT	7.85000E-001	Sample Area (cm^2)
SPEED	SELECTOR	1	Optimize for:
DRIFTCOR	SELECTOR	0	Drift Correction
THD	SELECTOR	0	THD
ZGUESS	QUANT	1.00000E+002	Estimated Z (ohms)
EOC	QUANT	-7.150342E-006	Open Circuit (V)
SEQUENCER	TOGGLE	TRUE	Run as Sequence
PSTATMODEL	IQUANT	48	Pstat Model
PSTATSECTION	LABEL	IFC1000-11123	Pstat Section
PSTATSERIALNO	LABEL	11123	Pstat Serial Number
CTRLMODE	IQUANT	1	Control Mode
ELECTROMETER	IQUANT	0	RE=0 or CS=1
IESTAB	IQUANT	0	I/E Stability
CASPEED	IQUANT	3	Control Amp Speed
CONVENTION	IQUANT	1	Current Convention
ICHRANGE	IQUANT	2	Ich Range
ICHRANGEMODE	TOGGLE	F	Ich Auto Range
ICHOFFSETENABLE	TOGGLE	T	Ich Offset Enable
ICHOFFSET	QUANT	0	Ich Offset (V)
ICHFILTER	IQUANT	4	Ich Filter
VCHRANGE	IQUANT	2	Vch Range
VCHRANGEMODE	TOGGLE	F	Vch Auto Range
VCHOFFSETENABLE	TOGGLE	T	Vch Offset Enable
VCHOFFSET	QUANT	0	Vch Offset (V)
VCHFILTER	IQUANT	4	Vch Filter
IERANGELOWERLIMIT	IQUANT	4	I/E Range Lower Limit
IERANGEMODE	TOGGLE	F	I/E AutoRange
IERANGE	IQUANT	11	I/E Range
ACHSELECT	IQUANT	0	Ach Select
ACHRANGE	IQUANT	2	Ach Range
ACHOFFSETENABLE	TOGGLE	F	Ach Offset Enable
ACHOFFSET	QUANT	0	Ach Offset (V)
ACHFILTER	IQUANT	1	Ach Filter
SENSECABLEID	IQUANT	14	Sense Cable ID
PWRCABLEID	IQUANT	14	Power Cable ID
DCCALDATE	LABEL	5/23/2025	DC Calibration Date
ACCALDATE	LABEL	4/29/2023	AC Calibration Date
FRAMEWORKVERSION	LABEL	7.10.0	Framework Version
INSTRUMENTVERSION	LABEL	4.72	Instrument Version
COMMVERSION	LABEL	3.10	Communications Version
CPUPLDVERSION	LABEL	1.10	CPU PLD Version
CTRLPLDVERSION	LABEL	0.00	CTRL PLD Version
PSTATPLDVERSION	LABEL	0.00	PSTAT PLD Version
ZCURVE	TABLE
	Pt	Time	Freq	Zreal	Zimag	Zsig	Zmod	Zphz	Idc	Vdc	IERange	Imod	Vmod	Temp
	#	s	Hz	ohm	ohm	V	ohm	°	A	V	#	A	V	°C
	0	4	1000020	122.7934	-3.610609	1	122.8465	-1.684235	-1.213734E-005	0.0002566	10	0.0008465	0.099849	0
	1	6	794355.5	123.9943	-4.667525	1	124.0821	-2.155771	-1.192179E-005	0.0002667	10	0.0012515	0.1506295	0
	2	7	630996.1	125.2687	-5.604529	1	125.394	-2.561708	-1.229842E-005	0.0002651	10	0.0011101	0.1360304	0
	3	9	501269.5	126.6082	-6.405468	1	126.7702	-2.896286	-1.246434E-005	0.0002502	10	0.0010277	0.1279987	0
	4	11	398144.5	127.9653	-7.052511	1	128.1595	-3.154533	-1.268333E-005	0.0002486	10	0.000975	0.1232166	0
	5	13	316230.5	129.3992	-7.587914	1	129.6214	-3.355958	-1.283751E-005	0.0002302	10	0.0009271	0.118816	0
	6	14	251191.4	130.8778	-8.010463	1	131.1227	-3.502457	-1.301077E-005	0.0002226	10	0.0008826	0.1146643	0
	7	16	199628.9	132.3968	-8.308647	1	132.6572	-3.590925	-1.326003E-005	0.0002032	10	0.0008448	0.1112221	0
	8	18	158496.1	133.9476	-8.471086	1	134.2152	-3.618669	-1.313797E-005	0.0002226	10	0.0008118	0.1082876	0
	9	20	125918	135.5044	-8.495908	1	135.7704	-3.587658	-1.330751E-005	0.0002158	10	0.0007815	0.1055945	0
	10	22	100019.5	137.0643	-8.353426	1	137.3186	-3.487595	-2.033177E-006	0.0000995	10	0.0007384	0.1009813	0
	11	23	79511.72	138.5113	-8.110765	1	138.7486	-3.351225	-2.035491E-006	0.0000967	10	0.0007532	0.1042308	0
	12	25	63105.47	139.9262	-7.710609	1	140.1384	-3.154085	-2.029001E-006	9.323697E-005	10	0.0007309	0.1022532	0
	13	27	50214.84	141.2076	-7.202038	1	141.3912	-2.919737	-2.01497E-006	9.023899E-005	10	0.0007163	0.1011615	0
	14	29	39902.34	142.364	-6.584289	1	142.5162	-2.648024	-2.018609E-006	9.109262E-005	10	0.000707	0.1006911	0
	15	31	31699.22	143.3563	-5.912981	1	143.4782	-2.361926	-1.925184E-006	8.973066E-005	10	0.0006997	0.1003498	0
	16	32	25136.72	144.1948	-5.213297	1	144.289	-2.070601	-1.98582E-006	9.095905E-005	10	0.0006948	0.1002184	0
	17	34	19980.47	144.8765	-4.53864	1	144.9476	-1.794355	-1.945599E-006	8.68818E-005	10	0.0006909	0.1001216	0
	18	36	15878.91	145.4216	-3.897717	1	145.4738	-1.535324	-2.044889E-006	8.939439E-005	10	0.000688	0.1000681	0
	19	38	12597.66	145.8401	-3.311169	1	145.8777	-1.300626	-2.027073E-006	8.930615E-005	10	0.0006859	0.1000453	0
	20	39	10019.53	146.1713	-2.794711	1	146.198	-1.095329	-1.956184E-006	8.7967E-005	10	0.0006843	0.1000388	0
	21	41	7928.241	146.4306	-2.339349	1	146.4493	-0.9152691	4.189587E-009	0.0001463	10	0.0006828	0.0999895	0
	22	43	6307.871	146.6209	-1.958517	1	146.634	-0.7652939	-5.783181E-008	0.0001441	10	0.0006822	0.1000265	0
	23	45	5034.722	146.7652	-1.647672	1	146.7745	-0.6432088	-1.633449E-006	0.0001167	10	0.0006629	0.0970602	0
	24	46	3993.056	146.8806	-1.377774	1	146.8871	-0.5374318	-1.657701E-006	0.0001173	10	0.0006938	0.1017629	0
	25	48	3144.055	146.9785	-1.148362	1	146.9829	-0.4476502	-1.671631E-006	0.000115	10	0.000686	0.1007417	0
	26	50	2519.531	147.0619	-0.977501	1	147.0651	-0.380832	-1.756612E-006	0.0001164	10	0.0006822	0.1002726	0
	27	52	2000.762	147.1331	-0.834323	1	147.1355	-0.3248941	-1.836169E-006	0.0001188	10	0.0006806	0.1001116	0
	28	53	1580.669	147.1953	-0.7181227	1	147.197	-0.2795271	-1.907069E-006	0.0001172	10	0.0006799	0.100067	0
	29	55	1253.634	147.2517	-0.6295524	1	147.2531	-0.2449579	-1.935464E-006	0.0001177	10	0.0006791	0.0999877	0
	30	57	1000.702	147.3066	-0.5617929	1	147.3077	-0.2185116	-1.894205E-006	0.0001165	10	0.000679	0.1000206	0
	31	59	790.0281	147.3673	-0.5074122	1	147.3682	-0.1972789	-1.877393E-006	0.0001185	10	0.0006785	0.0999836	0
	32	60	628.811	147.4293	-0.4691912	1	147.43	-0.1823422	-1.848889E-006	0.0001173	10	0.0006783	0.1000012	0
	33	62	502.2321	147.5051	-0.4439057	1	147.5058	-0.1724268	-1.889759E-006	0.0001156	10	0.0006514	0.0954421	0
	34	64	400.1524	147.5575	-0.4158437	1	147.5581	-0.1614694	-1.872491E-006	0.0001145	10	0.0006988	0.1026368	0
	35	65	315.5048	147.6131	-0.3936903	1	147.6137	-0.1528098	-1.928825E-006	0.0001149	10	0.0006869	0.1011012	0
	36	67	252.0161	147.6631	-0.3777114	1	147.6636	-0.1465581	-1.949413E-006	0.0001126	10	0.0006812	0.1003977	0
	37	69	200.3205	147.7157	-0.3622876	1	147.7161	-0.1405234	-1.928843E-006	0.0001129	10	0.000678	0.1000221	0
	38	70	158.0056	147.7648	-0.3471473	1	147.7652	-0.134606	-1.876552E-006	0.0001138	10	0.0006751	0.0996763	0
	39	72	125.558	147.8145	-0.3331197	1	147.8148	-0.1291235	-1.779018E-006	0.0001166	10	0.000671	0.0991339	0
	40	74	99.734	147.8646	-0.3208501	1	147.8649	-0.1243254	-1.787605E-006	0.0001135	10	0.000662	0.0978617	0
	41	76	79.44915	147.9151	-0.2920788	1	147.9154	-0.1131382	-1.82774E-006	0.0001131	10	0.0006957	0.1028825	0
	42	77	62.91946	147.9657	-0.2935107	1	147.966	-0.1136541	-1.703318E-006	0.0001114	10	0.000676	0.1000107	0
	43	79	49.86702	148.0163	-0.2740108	1	148.0166	-0.106067	-1.552251E-006	0.0001128	10	0.0006758	0.1000293	0
	44	81	38.42213	148.071	-0.2503605	1	148.0712	-0.0968764	-1.505398E-006	0.0001134	10	0.0006754	0.1000034	0
	45	83	31.25	148.1092	-0.2496517	1	148.1094	-0.0965772	-1.615417E-006	0.0001125	10	0.0006752	0.1000001	0
	46	84	24.93351	148.1431	-0.2367147	1	148.1433	-0.0915516	-1.666337E-006	0.0001146	10	0.000675	0.0999994	0
	47	86	20.03205	148.1706	-0.2226469	1	148.1708	-0.0860948	-1.737754E-006	0.0001099	10	0.0006749	0.0999997	0
	48	88	15.625	148.2015	-0.2162548	1	148.2016	-0.0836056	-1.747726E-006	0.0001128	10	0.0006748	0.1000001	0
	49	90	12.46675	148.2271	-0.205661	1	148.2272	-0.0794963	-1.767379E-006	0.0001138	10	0.0006746	0.0999999	0
	50	92	9.9734	148.2392	-0.1970671	1	148.2393	-0.0761682	-1.728968E-006	0.0001124	10	0.0006746	0.0999998	0
	51	94	7.971939	148.241	-0.1922428	1	148.2412	-0.0743026	-1.767132E-006	0.0001135	10	0.0006746	0.0999991	0
	52	97	6.351626	148.2407	-0.1868124	1	148.2408	-0.0722039	-1.76255E-006	0.0001127	10	0.0006746	0.1000002	0
	53	99	5.013369	148.2357	-0.181201	1	148.2358	-0.0700374	-1.801789E-006	0.0001116	10	0.0006746	0.0999995	0
	54	102	3.985969	148.2325	-0.1772565	1	148.2326	-0.0685143	-1.827694E-006	0.0001133	10	0.0006746	0.1	0
	55	105	3.175813	148.2334	-0.1724708	1	148.2335	-0.0666641	-1.820434E-006	0.0001148	10	0.0006746	0.0999996	0
	56	108	2.516103	148.2376	-0.1514103	1	148.2377	-0.058522	-1.83289E-006	0.0001168	10	0.0006499	0.0964876	0
	57	112	1.99553	148.2391	-0.1521001	1	148.2392	-0.058788	-1.883689E-006	0.0001169	10	0.0006881	0.1020733	0
	58	116	1.587906	148.2787	-0.1546437	1	148.2788	-0.0597552	-1.687998E-006	0.0001162	10	0.0006799	0.1008561	0
	59	121	1.258052	148.3437	-0.1580433	1	148.3438	-0.0610421	-1.728363E-006	0.0001168	10	0.0006764	0.1003663	0
	60	127	0.997765	148.4152	-0.1595236	1	148.4153	-0.0615842	-1.80202E-006	0.000116	10	0.0006748	0.1001547	0
	61	133	0.7927448	148.4675	-0.1549488	1	148.4676	-0.059797	-1.956794E-006	0.0001168	10	0.000674	0.1000677	0
	62	140	0.6290258	148.4828	-0.1522869	1	148.4829	-0.0587636	-1.946731E-006	0.0001171	10	0.0006737	0.1000322	0
	63	149	0.4988825	148.516	-0.1447315	1	148.516	-0.0558357	-1.822772E-006	0.0001166	10	0.0006734	0.1000161	0
	64	159	0.3985969	148.5394	-0.1399606	1	148.5395	-0.0539867	-1.862897E-006	0.0001161	10	0.0006733	0.1000085	0
