EXPLAIN
TAG	EISPOT
TITLE	LABEL	Potentiostatic EIS	Test Identifier
DATE	LABEL	2025/12/24	Date
TIME	LABEL	3:00:14	Time
NOTES	NOTES	1	Notes...
	
PSTAT	PSTAT	IFC1000-11123	Potentiostat
VDC	POTEN	0.00000E+000	T	DC Voltage (V)
FREQINIT	QUANT	1.00000E+006	Initial Freq. (Hz)
FREQFINAL	QUANT	5.00000E-001	Final Freq. (Hz)
PTSPERDEC	QUANT	1.00000E+001	Points/decade
VAC	QUANT	1.00000E+002	AC Voltage (mV rms)
AREA	QUANT	7.85000E-001	Sample Area (cm^2)
SPEED	SELECTOR	1	Optimize for:
DRIFTCOR	SELECTOR	0	Drift Correction
THD	SELECTOR	0	THD
ZGUESS	QUANT	1.00000E+002	Estimated Z (ohms)
EOC	QUANT	-5.802749E-006	Open Circuit (V)
SEQUENCER	TOGGLE	TRUE	Run as Sequence
PSTATMODEL	IQUANT	48	Pstat Model
PSTATSECTION	LABEL	IFC1000-11123	Pstat Section
PSTATSERIALNO	LABEL	11123	Pstat Serial Number
CTRLMODE	IQUANT	1	Control Mode
ELECTROMETER	IQUANT	0	RE=0 or CS=1
IESTAB	IQUANT	0	I/E Stability
CASPEED	IQUANT	3	Control Amp Speed
CONVENTION	IQUANT	1	Current Convention
ICHRANGE	IQUANT	2	Ich Range
ICHRANGEMODE	TOGGLE	F	Ich Auto Range
ICHOFFSETENABLE	TOGGLE	T	Ich Offset Enable
ICHOFFSET	QUANT	0	Ich Offset (V)
ICHFILTER	IQUANT	4	Ich Filter
VCHRANGE	IQUANT	2	Vch Range
VCHRANGEMODE	TOGGLE	F	Vch Auto Range
VCHOFFSETENABLE	TOGGLE	T	Vch Offset Enable
VCHOFFSET	QUANT	0	Vch Offset (V)
VCHFILTER	IQUANT	4	Vch Filter
IERANGELOWERLIMIT	IQUANT	4	I/E Range Lower Limit
IERANGEMODE	TOGGLE	F	I/E AutoRange
IERANGE	IQUANT	11	I/E Range
ACHSELECT	IQUANT	0	Ach Select
ACHRANGE	IQUANT	2	Ach Range
ACHOFFSETENABLE	TOGGLE	F	Ach Offset Enable
ACHOFFSET	QUANT	0	Ach Offset (V)
ACHFILTER	IQUANT	1	Ach Filter
SENSECABLEID	IQUANT	14	Sense Cable ID
PWRCABLEID	IQUANT	14	Power Cable ID
DCCALDATE	LABEL	5/23/2025	DC Calibration Date
ACCALDATE	LABEL	4/29/2023	AC Calibration Date
FRAMEWORKVERSION	LABEL	7.10.0	Framework Version
INSTRUMENTVERSION	LABEL	4.72	Instrument Version
COMMVERSION	LABEL	3.10	Communications Version
CPUPLDVERSION	LABEL	1.10	CPU PLD Version
CTRLPLDVERSION	LABEL	0.00	CTRL PLD Version
PSTATPLDVERSION	LABEL	0.00	PSTAT PLD Version
ZCURVE	TABLE
	Pt	Time	Freq	Zreal	Zimag	Zsig	Zmod	Zphz	Idc	Vdc	IERange	Imod	Vmod	Temp
	#	s	Hz	ohm	ohm	V	ohm	°	A	V	#	A	V	°C
	0	3	1000020	122.8831	-3.541913	1	122.9342	-1.651003	-1.240769E-005	0.0002663	10	0.0008475	0.1000383	0
	1	5	794355.5	124.1019	-4.643772	1	124.1888	-2.142952	-1.213051E-005	0.0002696	10	0.0012499	0.1505622	0
	2	7	630996.1	125.3743	-5.559611	1	125.4976	-2.539066	-1.240356E-005	0.0002659	10	0.0011092	0.1360411	0
	3	8	501269.5	126.6989	-6.350217	1	126.858	-2.869293	-1.252213E-005	0.0002621	10	0.0010271	0.1280093	0
	4	10	398144.5	128.0678	-7.034791	1	128.2609	-3.144109	-1.281433E-005	0.000252	10	0.0009716	0.1228898	0
	5	12	316230.5	129.4971	-7.582637	1	129.7189	-3.351099	-1.291116E-005	0.0002374	10	0.0009264	0.1188191	0
	6	14	251191.4	130.9866	-8.000462	1	131.2307	-3.495197	-1.29219E-005	0.0002322	10	0.0008854	0.1151189	0
	7	16	199628.9	132.5005	-8.28174	1	132.7591	-3.576532	-1.320062E-005	0.0002147	10	0.0008404	0.1107275	0
	8	17	158496.1	134.0654	-8.44113	1	134.3309	-3.602746	-1.317166E-005	0.0002223	10	0.0008129	0.1085296	0
	9	19	125918	135.6184	-8.451111	1	135.8814	-3.565798	-1.339689E-005	0.0002166	10	0.0007811	0.1056248	0
	10	21	100019.5	137.1862	-8.335737	1	137.4393	-3.477142	-2.019175E-006	0.0000997	10	0.0007378	0.1009846	0
	11	23	79511.72	138.6417	-8.086	1	138.8773	-3.337881	-2.024848E-006	0.0000954	10	0.0007523	0.1041996	0
	12	25	63105.47	140.0747	-7.688892	1	140.2855	-3.141891	-2.064579E-006	9.340054E-005	10	0.0007301	0.1022521	0
	13	26	50214.84	141.3706	-7.174553	1	141.5525	-2.905266	-2.10588E-006	9.106798E-005	10	0.0007157	0.1011939	0
	14	28	39902.34	142.5407	-6.560681	1	142.6916	-2.635277	-2.113925E-006	8.972973E-005	10	0.000706	0.1006616	0
	15	30	31699.22	143.5385	-5.886156	1	143.6591	-2.348242	-2.009996E-006	9.063864E-005	10	0.0006991	0.1003805	0
	16	32	25136.72	144.3797	-5.190923	1	144.473	-2.059083	-2.028984E-006	9.079179E-005	10	0.0006937	0.1001873	0
	17	33	19980.47	145.0578	-4.51855	1	145.1282	-1.784186	-1.985784E-006	9.226752E-005	10	0.00069	0.1001219	0
	18	35	15878.91	145.605	-3.879359	1	145.6566	-1.526173	-1.996751E-006	9.069586E-005	10	0.0006871	0.1000692	0
	19	37	12597.66	146.0319	-3.295296	1	146.0691	-1.292693	-1.9703E-006	8.944352E-005	10	0.000685	0.1000472	0
	20	39	10019.53	146.3551	-2.78424	1	146.3816	-1.089856	-1.970172E-006	8.855422E-005	10	0.0006834	0.1000394	0
	21	40	7928.241	146.6059	-2.325356	1	146.6243	-0.9087079	-1.473591E-007	0.000146	10	0.000682	0.0999907	0
	22	42	6307.871	146.7939	-1.946986	1	146.8068	-0.7598921	-2.084759E-007	0.0001455	10	0.0006814	0.1000312	0
	23	44	5034.722	146.9337	-1.639634	1	146.9428	-0.6393375	-1.783851E-006	0.0001185	10	0.0006622	0.0970604	0
	24	46	3993.056	147.0472	-1.369133	1	147.0536	-0.5334565	-1.846683E-006	0.0001179	10	0.000693	0.1017628	0
	25	47	3144.055	147.1403	-1.142569	1	147.1447	-0.4449023	-1.853959E-006	0.0001166	10	0.0006852	0.1007403	0
	26	49	2519.531	147.2086	-0.972172	1	147.2118	-0.3783781	-1.798939E-006	0.0001166	10	0.0006815	0.1002732	0
	27	51	2000.762	147.2665	-0.8289645	1	147.2688	-0.3225151	-1.728042E-006	0.0001173	10	0.00068	0.1001121	0
	28	53	1580.669	147.3195	-0.7145705	1	147.3213	-0.2779099	-1.745891E-006	0.0001173	10	0.0006792	0.1000353	0
	29	54	1253.634	147.3689	-0.625531	1	147.3703	-0.2431996	-1.833086E-006	0.0001193	10	0.0006788	0.1000204	0
	30	56	1000.702	147.4155	-0.5576869	1	147.4166	-0.2167543	-1.804231E-006	0.0001205	10	0.0006785	0.1000216	0
	31	58	790.0281	147.4656	-0.5069347	1	147.4665	-0.1969618	-1.882745E-006	0.0001198	10	0.000678	0.0999832	0
	32	60	628.811	147.5158	-0.465572	1	147.5165	-0.1808296	-1.898818E-006	0.0001181	10	0.0006777	0.0999698	0
	33	61	502.2321	147.5739	-0.4414626	1	147.5745	-0.171398	-1.984935E-006	0.0001136	10	0.0006511	0.0954416	0
	34	63	400.1524	147.6187	-0.4143519	1	147.6193	-0.1608234	-2.0344E-006	0.0001161	10	0.0006985	0.102637	0
	35	65	315.5048	147.6682	-0.3896887	1	147.6687	-0.1512003	-2.087892E-006	0.0001164	10	0.0006869	0.1011318	0
	36	66	252.0161	147.7146	-0.3745293	1	147.7151	-0.1452727	-2.113338E-006	0.0001141	10	0.000681	0.100398	0
	37	68	200.3205	147.7621	-0.3593276	1	147.7625	-0.1393315	-2.036667E-006	0.0001151	10	0.0006777	0.1000222	0
	38	70	158.0056	147.8141	-0.34394	1	147.8145	-0.133318	-2.067703E-006	0.000115	10	0.0006748	0.0996748	0
	39	71	125.558	147.8539	-0.330043	1	147.8543	-0.1278968	-1.983567E-006	0.0001184	10	0.0006708	0.0991334	0
	40	73	99.734	147.896	-0.3180867	1	147.8963	-0.1232285	-1.930463E-006	0.0001152	10	0.0006619	0.0978643	0
	41	75	79.44915	147.9317	-0.2872692	1	147.932	-0.1112627	-2.038161E-006	0.0001141	10	0.0006956	0.1028743	0
	42	77	62.91946	147.9694	-0.2859909	1	147.9697	-0.1107395	-2.096989E-006	0.0001117	10	0.000676	0.1000133	0
	43	78	49.86702	148.0007	-0.2698433	1	148.001	-0.1044648	-2.076795E-006	0.0001139	10	0.0006759	0.1000274	0
	44	80	38.42213	148.027	-0.246	1	148.0272	-0.0952174	-2.058175E-006	0.0001132	10	0.0006756	0.1000031	0
	45	82	31.25	148.0387	-0.24647	1	148.0389	-0.0953918	-2.045842E-006	0.0001116	10	0.0006755	0.1000006	0
	46	84	24.93351	148.057	-0.2346008	1	148.0572	-0.0907868	-2.075118E-006	0.0001122	10	0.0006754	0.0999993	0
	47	86	20.03205	148.0729	-0.2201569	1	148.0731	-0.0851881	-2.185043E-006	0.0001107	10	0.0006754	0.1	0
	48	88	15.625	148.0916	-0.2114856	1	148.0918	-0.0818225	-2.122488E-006	0.000112	10	0.0006753	0.0999995	0
	49	90	12.46675	148.1068	-0.2031162	1	148.1069	-0.0785764	-2.080348E-006	0.0001124	10	0.0006752	0.0999997	0
	50	92	9.9734	148.124	-0.1950781	1	148.1242	-0.075458	-2.086747E-006	0.0001137	10	0.0006751	0.1000002	0
	51	94	7.971939	148.1261	-0.1900228	1	148.1263	-0.0735015	-2.126231E-006	0.000113	10	0.0006751	0.0999993	0
	52	96	6.351626	148.1255	-0.1841837	1	148.1256	-0.0712433	-2.115989E-006	0.000114	10	0.0006751	0.1000002	0
	53	98	5.013369	148.1132	-0.1779997	1	148.1133	-0.068857	-1.921436E-006	0.000111	10	0.0006752	0.1000001	0
	54	101	3.985969	148.0919	-0.1759915	1	148.092	-0.0680899	-1.854555E-006	0.0001124	10	0.0006753	0.0999997	0
	55	104	3.175813	148.0623	-0.1730628	1	148.0624	-0.0669702	-1.891543E-006	0.0001134	10	0.0006754	0.0999995	0
	56	107	2.516103	148.0298	-0.151359	1	148.0299	-0.0585843	-1.812727E-006	0.0001153	10	0.0006508	0.0964873	0
	57	111	1.99553	147.9776	-0.1507042	1	147.9777	-0.0583515	-1.75671E-006	0.0001157	10	0.0006893	0.1020734	0
	58	116	1.587906	147.9373	-0.1550281	1	147.9373	-0.060042	-1.620106E-006	0.0001159	10	0.0006815	0.1008566	0
	59	121	1.258052	147.9292	-0.1581593	1	147.9293	-0.061258	-1.642672E-006	0.0001163	10	0.0006783	0.1003663	0
	60	127	0.997765	147.9218	-0.1557204	1	147.9219	-0.0603164	-1.650377E-006	0.0001145	10	0.000677	0.1001545	0
	61	133	0.7927448	147.8932	-0.1560861	1	147.8933	-0.0604698	-1.683575E-006	0.0001148	10	0.0006766	0.1000686	0
	62	140	0.6290258	147.8656	-0.1511816	1	147.8657	-0.0585807	-1.580707E-006	0.0001145	10	0.0006765	0.1000311	0
	63	148	0.4988825	147.8648	-0.1480257	1	147.8649	-0.0573581	-1.595643E-006	0.0001153	10	0.0006764	0.1000162	0
	64	158	0.3985969	147.889	-0.1392963	1	147.8891	-0.0539667	-1.615002E-006	0.000117	10	0.0006762	0.1000084	0
