EXPLAIN
TAG	EISPOT
TITLE	LABEL	Potentiostatic EIS	Test Identifier
DATE	LABEL	2025/12/24	Date
TIME	LABEL	3:09:40	Time
NOTES	NOTES	1	Notes...
	
PSTAT	PSTAT	IFC1000-11123	Potentiostat
VDC	POTEN	0.00000E+000	T	DC Voltage (V)
FREQINIT	QUANT	1.00000E+006	Initial Freq. (Hz)
FREQFINAL	QUANT	5.00000E-001	Final Freq. (Hz)
PTSPERDEC	QUANT	1.00000E+001	Points/decade
VAC	QUANT	1.00000E+002	AC Voltage (mV rms)
AREA	QUANT	7.85000E-001	Sample Area (cm^2)
SPEED	SELECTOR	1	Optimize for:
DRIFTCOR	SELECTOR	0	Drift Correction
THD	SELECTOR	0	THD
ZGUESS	QUANT	1.00000E+002	Estimated Z (ohms)
EOC	QUANT	-5.160672E-006	Open Circuit (V)
SEQUENCER	TOGGLE	TRUE	Run as Sequence
PSTATMODEL	IQUANT	48	Pstat Model
PSTATSECTION	LABEL	IFC1000-11123	Pstat Section
PSTATSERIALNO	LABEL	11123	Pstat Serial Number
CTRLMODE	IQUANT	1	Control Mode
ELECTROMETER	IQUANT	0	RE=0 or CS=1
IESTAB	IQUANT	0	I/E Stability
CASPEED	IQUANT	3	Control Amp Speed
CONVENTION	IQUANT	1	Current Convention
ICHRANGE	IQUANT	2	Ich Range
ICHRANGEMODE	TOGGLE	F	Ich Auto Range
ICHOFFSETENABLE	TOGGLE	T	Ich Offset Enable
ICHOFFSET	QUANT	0	Ich Offset (V)
ICHFILTER	IQUANT	4	Ich Filter
VCHRANGE	IQUANT	2	Vch Range
VCHRANGEMODE	TOGGLE	F	Vch Auto Range
VCHOFFSETENABLE	TOGGLE	T	Vch Offset Enable
VCHOFFSET	QUANT	0	Vch Offset (V)
VCHFILTER	IQUANT	4	Vch Filter
IERANGELOWERLIMIT	IQUANT	4	I/E Range Lower Limit
IERANGEMODE	TOGGLE	F	I/E AutoRange
IERANGE	IQUANT	11	I/E Range
ACHSELECT	IQUANT	0	Ach Select
ACHRANGE	IQUANT	2	Ach Range
ACHOFFSETENABLE	TOGGLE	F	Ach Offset Enable
ACHOFFSET	QUANT	0	Ach Offset (V)
ACHFILTER	IQUANT	1	Ach Filter
SENSECABLEID	IQUANT	14	Sense Cable ID
PWRCABLEID	IQUANT	14	Power Cable ID
DCCALDATE	LABEL	5/23/2025	DC Calibration Date
ACCALDATE	LABEL	4/29/2023	AC Calibration Date
FRAMEWORKVERSION	LABEL	7.10.0	Framework Version
INSTRUMENTVERSION	LABEL	4.72	Instrument Version
COMMVERSION	LABEL	3.10	Communications Version
CPUPLDVERSION	LABEL	1.10	CPU PLD Version
CTRLPLDVERSION	LABEL	0.00	CTRL PLD Version
PSTATPLDVERSION	LABEL	0.00	PSTAT PLD Version
ZCURVE	TABLE
	Pt	Time	Freq	Zreal	Zimag	Zsig	Zmod	Zphz	Idc	Vdc	IERange	Imod	Vmod	Temp
	#	s	Hz	ohm	ohm	V	ohm	°	A	V	#	A	V	°C
	0	4	1000020	123.0535	-3.617703	1	123.1067	-1.683978	-1.281446E-005	0.0002615	10	0.0008451	0.0998867	0
	1	6	794355.5	124.2539	-4.682996	1	124.3421	-2.158395	-1.251477E-005	0.000272	10	0.0012485	0.1505888	0
	2	8	630996.1	125.5231	-5.604979	1	125.6482	-2.556728	-1.284829E-005	0.0002677	10	0.001108	0.1360584	0
	3	9	501269.5	126.857	-6.411649	1	127.0189	-2.8934	-1.305402E-005	0.0002587	10	0.0010259	0.1280178	0
	4	11	398144.5	128.2316	-7.075953	1	128.4267	-3.158438	-1.322235E-005	0.0002484	10	0.0009704	0.1228973	0
	5	13	316230.5	129.6439	-7.616897	1	129.8675	-3.362401	-1.343033E-005	0.0002348	10	0.0009254	0.1188322	0
	6	15	251191.4	131.1483	-8.037484	1	131.3944	-3.507012	-1.351888E-005	0.000229	10	0.0008844	0.1151297	0
	7	16	199628.9	132.6572	-8.328626	1	132.9184	-3.59249	-1.354661E-005	0.0002122	10	0.0008394	0.1107322	0
	8	18	158496.1	134.2056	-8.490449	1	134.4739	-3.619964	-1.336288E-005	0.0002241	10	0.0008118	0.1085045	0
	9	20	125918	135.7634	-8.488755	1	136.0285	-3.577823	-1.350241E-005	0.00022	10	0.00078	0.1055965	0
	10	22	100019.5	137.3226	-8.368982	1	137.5774	-3.487518	-2.267175E-006	0.0001003	10	0.000737	0.1009862	0
	11	24	79511.72	138.7734	-8.117693	1	139.0107	-3.34776	-2.187933E-006	0.000095	10	0.0007516	0.1042004	0
	12	25	63105.47	140.1939	-7.717612	1	140.4062	-3.150926	-2.043266E-006	9.214709E-005	10	0.0007295	0.1022518	0
	13	27	50214.84	141.4874	-7.202961	1	141.6706	-2.914347	-1.974203E-006	9.080349E-005	10	0.0007151	0.1011947	0
	14	29	39902.34	142.6483	-6.592476	1	142.8006	-2.646035	-1.97342E-006	9.166892E-005	10	0.0007054	0.1006581	0
	15	31	31699.22	143.6434	-5.916228	1	143.7652	-2.358503	-2.024304E-006	9.145995E-005	10	0.0006985	0.1003809	0
	16	32	25136.72	144.48	-5.220491	1	144.5743	-2.069366	-1.99783E-006	8.9482E-005	10	0.0006934	0.10022	0
	17	34	19980.47	145.1502	-4.535792	1	145.2211	-1.78985	-2.007951E-006	8.759566E-005	10	0.0006896	0.100121	0
	18	36	15878.91	145.6935	-3.895559	1	145.7456	-1.531612	-2.022656E-006	8.813207E-005	10	0.0006867	0.1000667	0
	19	38	12597.66	146.1017	-3.309383	1	146.1392	-1.297598	-2.09352E-006	8.68825E-005	10	0.0006847	0.100047	0
	20	39	10019.53	146.4168	-2.795341	1	146.4435	-1.093739	-2.144378E-006	8.665654E-005	10	0.0006829	0.1000053	0
	21	41	7928.241	146.6545	-2.33417	1	146.6731	-0.9118493	-3.059977E-007	0.000143	10	0.000682	0.1000228	0
	22	43	6307.871	146.8333	-1.958446	1	146.8464	-0.7641591	-2.721649E-007	0.0001428	10	0.000681	0.0999969	0
	23	45	5034.722	146.9563	-1.644387	1	146.9655	-0.6410919	-1.875478E-006	0.0001166	10	0.0006621	0.0970599	0
	24	46	3993.056	147.0551	-1.373947	1	147.0616	-0.5353029	-1.861326E-006	0.0001166	10	0.000693	0.1017629	0
	25	48	3144.055	147.1342	-1.144263	1	147.1387	-0.4455803	-1.845519E-006	0.0001162	10	0.0006852	0.1007409	0
	26	50	2519.531	147.1878	-0.973888	1	147.1911	-0.3790995	-1.86266E-006	0.000116	10	0.0006816	0.1002725	0
	27	52	2000.762	147.2334	-0.8303451	1	147.2358	-0.3231247	-1.891746E-006	0.0001166	10	0.0006804	0.1001427	0
	28	53	1580.669	147.2808	-0.7152408	1	147.2825	-0.2782438	-1.868475E-006	0.0001181	10	0.0006793	0.1000359	0
	29	55	1253.634	147.3145	-0.6256552	1	147.3158	-0.2433378	-1.855096E-006	0.0001185	10	0.000679	0.1000199	0
	30	57	1000.702	147.348	-0.5586394	1	147.3491	-0.217224	-1.930694E-006	0.0001175	10	0.0006786	0.0999894	0
	31	59	790.0281	147.3805	-0.5033593	1	147.3814	-0.1956856	-1.920045E-006	0.0001173	10	0.0006786	0.1000136	0
	32	60	628.811	147.4144	-0.4645695	1	147.4151	-0.1805644	-1.920445E-006	0.0001173	10	0.0006782	0.0999711	0
	33	62	502.2321	147.4579	-0.4411059	1	147.4586	-0.1713942	-1.971813E-006	0.0001134	10	0.0006517	0.0954424	0
	34	64	400.1524	147.4876	-0.412536	1	147.4882	-0.160261	-1.98011E-006	0.0001132	10	0.0006991	0.1026379	0
	35	65	315.5048	147.5276	-0.3905007	1	147.5281	-0.1516597	-1.928825E-006	0.0001131	10	0.0006876	0.1011325	0
	36	67	252.0161	147.5733	-0.3730576	1	147.5737	-0.1448405	-1.918407E-006	0.0001121	10	0.0006814	0.1003676	0
	37	69	200.3205	147.6203	-0.3598796	1	147.6208	-0.1396795	-1.999154E-006	0.0001109	10	0.0006784	0.1000218	0
	38	71	158.0056	147.6681	-0.345931	1	147.6685	-0.1342223	-1.973508E-006	0.0001117	10	0.0006757	0.099706	0
	39	72	125.558	147.7153	-0.3324452	1	147.7156	-0.1289486	-2.073376E-006	0.0001146	10	0.0006712	0.0991041	0
	40	74	99.734	147.7639	-0.3175647	1	147.7642	-0.1231362	-2.134967E-006	0.0001131	10	0.0006625	0.0978626	0
	41	76	79.44915	147.813	-0.2872091	1	147.8132	-0.1113289	-2.181458E-006	0.0001129	10	0.0006962	0.102892	0
	42	77	62.91946	147.8653	-0.2903924	1	147.8656	-0.112523	-2.215819E-006	0.0001117	10	0.0006765	0.1000122	0
	43	79	49.86702	147.9043	-0.2748837	1	147.9045	-0.1064855	-2.114752E-006	0.0001132	10	0.0006764	0.1000282	0
	44	81	38.42213	147.9464	-0.2483008	1	147.9466	-0.0961603	-2.026732E-006	0.0001131	10	0.000676	0.1000026	0
	45	83	31.25	147.9767	-0.2498265	1	147.9769	-0.0967314	-2.063401E-006	0.0001136	10	0.0006758	0.100001	0
	46	85	24.93351	148.0051	-0.2328691	1	148.0053	-0.0901483	-2.073548E-006	0.0001132	10	0.0006757	0.0999985	0
	47	87	20.03205	148.0353	-0.2227645	1	148.0355	-0.086219	-2.040627E-006	0.0001105	10	0.0006755	0.1000009	0
	48	88	15.625	148.0601	-0.2162188	1	148.0603	-0.0836715	-2.011809E-006	0.0001131	10	0.0006754	0.0999988	0
	49	90	12.46675	148.0803	-0.2040837	1	148.0804	-0.0789648	-2.099322E-006	0.000113	10	0.0006753	0.0999996	0
	50	92	9.9734	148.0913	-0.1961447	1	148.0914	-0.0758874	-2.047649E-006	0.0001123	10	0.0006753	0.1000002	0
	51	95	7.971939	148.1024	-0.1912644	1	148.1025	-0.0739937	-1.991145E-006	0.000113	10	0.0006752	0.0999993	0
	52	97	6.351626	148.1132	-0.184849	1	148.1134	-0.0715065	-1.86324E-006	0.0001113	10	0.0006752	0.0999998	0
	53	99	5.013369	148.1111	-0.1794787	1	148.1112	-0.0694301	-1.903516E-006	0.0001095	10	0.0006752	0.1000004	0
	54	102	3.985969	148.1057	-0.1764454	1	148.1058	-0.0682592	-1.912827E-006	0.0001121	10	0.0006752	0.0999997	0
	55	105	3.175813	148.0983	-0.174129	1	148.0984	-0.0673664	-1.841328E-006	0.0001117	10	0.0006752	0.0999998	0
	56	108	2.516103	148.099	-0.1540712	1	148.0991	-0.0596063	-1.796127E-006	0.0001138	10	0.0006505	0.0964868	0
	57	112	1.99553	148.0859	-0.1493277	1	148.0859	-0.0577762	-1.769187E-006	0.0001141	10	0.0006888	0.1020734	0
	58	117	1.587906	148.1008	-0.1543366	1	148.1009	-0.0597082	-1.772534E-006	0.000115	10	0.0006807	0.100857	0
	59	122	1.258052	148.1187	-0.1576986	1	148.1188	-0.0610015	-1.897561E-006	0.0001138	10	0.0006775	0.1003661	0
	60	128	0.997765	148.1317	-0.1567249	1	148.1318	-0.0606195	-1.874307E-006	0.0001136	10	0.000676	0.1001548	0
	61	134	0.7927448	148.1568	-0.1554936	1	148.1568	-0.0601331	-1.787326E-006	0.0001151	10	0.0006754	0.1000685	0
	62	141	0.6290258	148.1893	-0.1500658	1	148.1893	-0.0580213	-1.726832E-006	0.0001124	10	0.000675	0.1000311	0
	63	149	0.4988825	148.2132	-0.1487103	1	148.2133	-0.0574879	-1.74499E-006	0.0001142	10	0.0006748	0.1000157	0
	64	159	0.3985969	148.2518	-0.1404439	1	148.2519	-0.0542782	-1.942061E-006	0.0001155	10	0.0006746	0.1000085	0
