EXPLAIN
TAG	EISPOT
TITLE	LABEL	Potentiostatic EIS	Test Identifier
DATE	LABEL	2025/12/23	Date
TIME	LABEL	22:35:41	Time
NOTES	NOTES	1	Notes...
	
PSTAT	PSTAT	IFC1000-11123	Potentiostat
VDC	POTEN	0.00000E+000	T	DC Voltage (V)
FREQINIT	QUANT	1.00000E+006	Initial Freq. (Hz)
FREQFINAL	QUANT	5.00000E-001	Final Freq. (Hz)
PTSPERDEC	QUANT	1.00000E+001	Points/decade
VAC	QUANT	1.00000E+002	AC Voltage (mV rms)
AREA	QUANT	7.85000E-001	Sample Area (cm^2)
SPEED	SELECTOR	1	Optimize for:
DRIFTCOR	SELECTOR	0	Drift Correction
THD	SELECTOR	0	THD
ZGUESS	QUANT	1.00000E+002	Estimated Z (ohms)
EOC	QUANT	-7.671049E-006	Open Circuit (V)
SEQUENCER	TOGGLE	TRUE	Run as Sequence
PSTATMODEL	IQUANT	48	Pstat Model
PSTATSECTION	LABEL	IFC1000-11123	Pstat Section
PSTATSERIALNO	LABEL	11123	Pstat Serial Number
CTRLMODE	IQUANT	1	Control Mode
ELECTROMETER	IQUANT	0	RE=0 or CS=1
IESTAB	IQUANT	0	I/E Stability
CASPEED	IQUANT	3	Control Amp Speed
CONVENTION	IQUANT	1	Current Convention
ICHRANGE	IQUANT	2	Ich Range
ICHRANGEMODE	TOGGLE	F	Ich Auto Range
ICHOFFSETENABLE	TOGGLE	T	Ich Offset Enable
ICHOFFSET	QUANT	0	Ich Offset (V)
ICHFILTER	IQUANT	4	Ich Filter
VCHRANGE	IQUANT	2	Vch Range
VCHRANGEMODE	TOGGLE	F	Vch Auto Range
VCHOFFSETENABLE	TOGGLE	T	Vch Offset Enable
VCHOFFSET	QUANT	0	Vch Offset (V)
VCHFILTER	IQUANT	4	Vch Filter
IERANGELOWERLIMIT	IQUANT	4	I/E Range Lower Limit
IERANGEMODE	TOGGLE	F	I/E AutoRange
IERANGE	IQUANT	11	I/E Range
ACHSELECT	IQUANT	0	Ach Select
ACHRANGE	IQUANT	2	Ach Range
ACHOFFSETENABLE	TOGGLE	F	Ach Offset Enable
ACHOFFSET	QUANT	0	Ach Offset (V)
ACHFILTER	IQUANT	1	Ach Filter
SENSECABLEID	IQUANT	14	Sense Cable ID
PWRCABLEID	IQUANT	14	Power Cable ID
DCCALDATE	LABEL	5/23/2025	DC Calibration Date
ACCALDATE	LABEL	4/29/2023	AC Calibration Date
FRAMEWORKVERSION	LABEL	7.10.0	Framework Version
INSTRUMENTVERSION	LABEL	4.72	Instrument Version
COMMVERSION	LABEL	3.10	Communications Version
CPUPLDVERSION	LABEL	1.10	CPU PLD Version
CTRLPLDVERSION	LABEL	0.00	CTRL PLD Version
PSTATPLDVERSION	LABEL	0.00	PSTAT PLD Version
ZCURVE	TABLE
	Pt	Time	Freq	Zreal	Zimag	Zsig	Zmod	Zphz	Idc	Vdc	IERange	Imod	Vmod	Temp
	#	s	Hz	ohm	ohm	V	ohm	°	A	V	#	A	V	°C
	0	3	1000020	121.5742	-2.820879	1	121.6069	-1.329192	-1.203237E-005	0.0002782	10	0.0008576	0.1001342	0
	1	5	794355.5	122.6528	-3.953845	1	122.7165	-1.846352	-1.191023E-005	0.0002733	10	0.0012647	0.150539	0
	2	7	630996.1	123.8172	-4.934519	1	123.9155	-2.282216	-1.252046E-005	0.0002665	10	0.001123	0.1359904	0
	3	9	501269.5	125.0723	-5.766994	1	125.2052	-2.639997	-1.265315E-005	0.0002622	10	0.0010412	0.1280792	0
	4	11	398144.5	126.3837	-6.477138	1	126.5496	-2.933829	-1.263352E-005	0.0002541	10	0.0009861	0.1230577	0
	5	12	316230.5	127.7472	-7.062014	1	127.9423	-3.164156	-1.284014E-005	0.0002391	10	0.0009381	0.1186784	0
	6	14	251191.4	129.175	-7.45371	1	129.3899	-3.302442	-1.297659E-005	0.0002372	10	0.0008972	0.115021	0
	7	16	199628.9	130.6397	-7.739916	1	130.8688	-3.390597	-1.304615E-005	0.0002192	10	0.0008559	0.1111598	0
	8	18	158496.1	132.1437	-7.868255	1	132.3777	-3.40755	-1.311174E-005	0.0002275	10	0.0008234	0.1083368	0
	9	19	125918	133.6259	-7.866333	1	133.8573	-3.369018	-1.320018E-005	0.0002169	10	0.0007927	0.1056071	0
	10	21	100019.5	135.1105	-7.690671	1	135.3293	-3.257836	-1.994489E-006	0.000098	10	0.0007494	0.1010049	0
	11	23	79511.72	136.4679	-7.403821	1	136.6686	-3.105436	-1.994982E-006	0.0000974	10	0.0007647	0.1042307	0
	12	25	63105.47	137.7787	-6.978488	1	137.9553	-2.899552	-2.072375E-006	9.429001E-005	10	0.0007423	0.1022296	0
	13	27	50214.84	138.9322	-6.446155	1	139.0817	-2.656495	-2.0742E-006	9.225644E-005	10	0.0007285	0.1012064	0
	14	28	39902.34	139.9621	-5.837753	1	140.0838	-2.388396	-2.055237E-006	9.23367E-005	10	0.0007192	0.1006744	0
	15	30	31699.22	140.8221	-5.197592	1	140.918	-2.113765	-2.041463E-006	9.082491E-005	10	0.0007126	0.1003685	0
	16	32	25136.72	141.5442	-4.54156	1	141.617	-1.837751	-2.062508E-006	8.923782E-005	10	0.0007078	0.1002096	0
	17	34	19980.47	142.1156	-3.923346	1	142.1697	-1.581347	-2.052437E-006	9.069359E-005	10	0.0007043	0.1001144	0
	18	35	15878.91	142.553	-3.341446	1	142.5922	-1.342768	-2.041977E-006	8.956049E-005	10	0.000702	0.1000908	0
	19	37	12597.66	142.8984	-2.823643	1	142.9263	-1.132005	-1.963742E-006	9.038195E-005	10	0.0007	0.1000396	0
	20	39	10019.53	143.1636	-2.373516	1	143.1833	-0.9498224	-1.948909E-006	8.794738E-005	10	0.0006987	0.1000334	0
	21	41	7928.241	143.3592	-1.982383	1	143.3729	-0.7922404	-5.030552E-008	0.0001456	10	0.0006976	0.1000179	0
	22	42	6307.871	143.5067	-1.654418	1	143.5162	-0.6605057	-7.601214E-008	0.0001463	10	0.0006967	0.0999924	0
	23	44	5034.722	143.6144	-1.395189	1	143.6212	-0.5566011	-1.68607E-006	0.0001198	10	0.0006775	0.0970551	0
	24	46	3993.056	143.7043	-1.16885	1	143.709	-0.4660173	-1.653936E-006	0.0001195	10	0.0007091	0.1017594	0
	25	48	3144.055	143.7796	-0.977314	1	143.7829	-0.3894511	-1.720904E-006	0.0001185	10	0.0007012	0.1007368	0
	26	49	2519.531	143.831	-0.8353375	1	143.8335	-0.332757	-1.693602E-006	0.0001171	10	0.0006977	0.1002992	0
	27	51	2000.762	143.875	-0.7167832	1	143.8768	-0.2854443	-1.698085E-006	0.0001185	10	0.000696	0.1001081	0
	28	53	1580.669	143.9138	-0.6229054	1	143.9151	-0.2479931	-1.763265E-006	0.0001176	10	0.0006954	0.1000625	0
	29	55	1253.634	143.9549	-0.5492057	1	143.956	-0.2185894	-1.720871E-006	0.0001179	10	0.0006948	0.1000144	0
	30	57	1000.702	143.9908	-0.4957419	1	143.9917	-0.1972612	-1.718433E-006	0.0001205	10	0.0006944	0.0999866	0
	31	58	790.0281	144.0303	-0.4490397	1	144.031	-0.1786291	-1.724671E-006	0.0001186	10	0.0006944	0.1000104	0
	32	60	628.811	144.0649	-0.4145195	1	144.0655	-0.1648573	-1.672214E-006	0.0001204	10	0.0006939	0.099965	0
	33	62	502.2321	144.1099	-0.3943959	1	144.1104	-0.1568051	-1.794095E-006	0.0001165	10	0.0006668	0.0954391	0
	34	63	400.1524	144.1437	-0.3658958	1	144.1441	-0.1454399	-1.827336E-006	0.0001175	10	0.0007153	0.1026335	0
	35	65	315.5048	144.1759	-0.3458121	1	144.1763	-0.1374262	-1.838934E-006	0.0001175	10	0.0007035	0.1011256	0
	36	67	252.0161	144.2061	-0.3277573	1	144.2064	-0.1302239	-1.881011E-006	0.0001129	10	0.0006975	0.1003935	0
	37	68	200.3205	144.2376	-0.3133275	1	144.238	-0.1244634	-1.91604E-006	0.0001133	10	0.0006943	0.1000171	0
	38	70	158.0056	144.2723	-0.2985137	1	144.2726	-0.1185505	-1.872613E-006	0.000114	10	0.0006916	0.0997002	0
	39	72	125.558	144.3058	-0.2867444	1	144.3061	-0.1138501	-1.828604E-006	0.0001181	10	0.000687	0.0990961	0
	40	74	99.734	144.3407	-0.274168	1	144.3409	-0.1088304	-1.785175E-006	0.0001184	10	0.0006783	0.0978828	0
	41	75	79.44915	144.371	-0.2461684	1	144.3712	-0.0976955	-1.82622E-006	0.0001132	10	0.0007128	0.1028894	0
	42	77	62.91946	144.4028	-0.2460309	1	144.403	-0.0976195	-1.810389E-006	0.0001116	10	0.0006927	0.10001	0
	43	79	49.86702	144.4306	-0.2350065	1	144.4308	-0.0932273	-1.772495E-006	0.0001165	10	0.0006926	0.1000288	0
	44	81	38.42213	144.4575	-0.2130862	1	144.4577	-0.0845157	-1.756165E-006	0.000116	10	0.0006923	0.1000036	0
	45	82	31.25	144.4732	-0.215135	1	144.4733	-0.0853191	-1.669457E-006	0.0001134	10	0.0006922	0.0999999	0
	46	84	24.93351	144.4948	-0.20431	1	144.4949	-0.0810139	-1.557523E-006	0.0001149	10	0.0006921	0.0999996	0
	47	86	20.03205	144.5065	-0.1962615	1	144.5066	-0.0778162	-1.622331E-006	0.0001111	10	0.000692	0.1000005	0
	48	88	15.625	144.5233	-0.1897636	1	144.5234	-0.0752311	-1.602555E-006	0.0001133	10	0.0006919	0.0999983	0
	49	90	12.46675	144.5375	-0.1856808	1	144.5376	-0.0736053	-1.61188E-006	0.0001129	10	0.0006919	0.0999996	0
	50	92	9.9734	144.5464	-0.1822946	1	144.5465	-0.0722585	-1.644046E-006	0.0001145	10	0.0006918	0.1000006	0
	51	94	7.971939	144.548	-0.1801853	1	144.5481	-0.0714216	-1.653862E-006	0.0001127	10	0.0006918	0.0999998	0
	52	96	6.351626	144.5398	-0.1776596	1	144.5399	-0.0704245	-1.624486E-006	0.0001144	10	0.0006919	0.0999999	0
	53	99	5.013369	144.5425	-0.1764641	1	144.5426	-0.0699493	-1.672355E-006	0.0001105	10	0.0006918	0.1	0
	54	102	3.985969	144.5353	-0.1737359	1	144.5354	-0.0688713	-1.697319E-006	0.0001142	10	0.0006919	0.1	0
	55	104	3.175813	144.5315	-0.175908	1	144.5316	-0.0697341	-1.729915E-006	0.0001145	10	0.0006919	0.0999995	0
	56	108	2.516103	144.5227	-0.1565694	1	144.5228	-0.0620716	-1.753787E-006	0.0001154	10	0.0006666	0.0964897	0
	57	112	1.99553	144.4921	-0.1559047	1	144.4922	-0.0618212	-1.575023E-006	0.000116	10	0.0007059	0.1020727	0
	58	116	1.587906	144.4905	-0.161317	1	144.4906	-0.0639681	-1.595082E-006	0.0001162	10	0.0006977	0.1008565	0
	59	121	1.258052	144.505	-0.1635027	1	144.5051	-0.0648283	-1.671258E-006	0.0001163	10	0.0006944	0.1003666	0
	60	127	0.997765	144.5133	-0.1633146	1	144.5134	-0.06475	-1.586276E-006	0.0001175	10	0.000693	0.1001539	0
	61	133	0.7927448	144.4967	-0.1599326	1	144.4968	-0.0634164	-1.584774E-006	0.0001168	10	0.0006925	0.1000683	0
	62	140	0.6290258	144.4895	-0.1554731	1	144.4895	-0.0616512	-1.658226E-006	0.000117	10	0.0006923	0.1000317	0
	63	148	0.4988825	144.4949	-0.1483141	1	144.4949	-0.0588102	-1.602434E-006	0.0001163	10	0.0006922	0.1000157	0
	64	158	0.3985969	144.4809	-0.1430447	1	144.481	-0.0567262	-1.745931E-006	0.0001169	10	0.0006922	0.1000081	0
