EXPLAIN
TAG	EISPOT
TITLE	LABEL	Potentiostatic EIS	Test Identifier
DATE	LABEL	2025/12/23	Date
TIME	LABEL	22:54:35	Time
NOTES	NOTES	1	Notes...
	
PSTAT	PSTAT	IFC1000-11123	Potentiostat
VDC	POTEN	0.00000E+000	T	DC Voltage (V)
FREQINIT	QUANT	1.00000E+006	Initial Freq. (Hz)
FREQFINAL	QUANT	5.00000E-001	Final Freq. (Hz)
PTSPERDEC	QUANT	1.00000E+001	Points/decade
VAC	QUANT	1.00000E+002	AC Voltage (mV rms)
AREA	QUANT	7.85000E-001	Sample Area (cm^2)
SPEED	SELECTOR	1	Optimize for:
DRIFTCOR	SELECTOR	0	Drift Correction
THD	SELECTOR	0	THD
ZGUESS	QUANT	1.00000E+002	Estimated Z (ohms)
EOC	QUANT	-6.828495E-006	Open Circuit (V)
SEQUENCER	TOGGLE	TRUE	Run as Sequence
PSTATMODEL	IQUANT	48	Pstat Model
PSTATSECTION	LABEL	IFC1000-11123	Pstat Section
PSTATSERIALNO	LABEL	11123	Pstat Serial Number
CTRLMODE	IQUANT	1	Control Mode
ELECTROMETER	IQUANT	0	RE=0 or CS=1
IESTAB	IQUANT	0	I/E Stability
CASPEED	IQUANT	3	Control Amp Speed
CONVENTION	IQUANT	1	Current Convention
ICHRANGE	IQUANT	2	Ich Range
ICHRANGEMODE	TOGGLE	F	Ich Auto Range
ICHOFFSETENABLE	TOGGLE	T	Ich Offset Enable
ICHOFFSET	QUANT	0	Ich Offset (V)
ICHFILTER	IQUANT	4	Ich Filter
VCHRANGE	IQUANT	2	Vch Range
VCHRANGEMODE	TOGGLE	F	Vch Auto Range
VCHOFFSETENABLE	TOGGLE	T	Vch Offset Enable
VCHOFFSET	QUANT	0	Vch Offset (V)
VCHFILTER	IQUANT	4	Vch Filter
IERANGELOWERLIMIT	IQUANT	4	I/E Range Lower Limit
IERANGEMODE	TOGGLE	F	I/E AutoRange
IERANGE	IQUANT	11	I/E Range
ACHSELECT	IQUANT	0	Ach Select
ACHRANGE	IQUANT	2	Ach Range
ACHOFFSETENABLE	TOGGLE	F	Ach Offset Enable
ACHOFFSET	QUANT	0	Ach Offset (V)
ACHFILTER	IQUANT	1	Ach Filter
SENSECABLEID	IQUANT	14	Sense Cable ID
PWRCABLEID	IQUANT	14	Power Cable ID
DCCALDATE	LABEL	5/23/2025	DC Calibration Date
ACCALDATE	LABEL	4/29/2023	AC Calibration Date
FRAMEWORKVERSION	LABEL	7.10.0	Framework Version
INSTRUMENTVERSION	LABEL	4.72	Instrument Version
COMMVERSION	LABEL	3.10	Communications Version
CPUPLDVERSION	LABEL	1.10	CPU PLD Version
CTRLPLDVERSION	LABEL	0.00	CTRL PLD Version
PSTATPLDVERSION	LABEL	0.00	PSTAT PLD Version
ZCURVE	TABLE
	Pt	Time	Freq	Zreal	Zimag	Zsig	Zmod	Zphz	Idc	Vdc	IERange	Imod	Vmod	Temp
	#	s	Hz	ohm	ohm	V	ohm	°	A	V	#	A	V	°C
	0	3	1000020	121.6959	-2.871601	1	121.7298	-1.351731	-1.228669E-005	0.0002751	10	0.0008569	0.10015	0
	1	5	794355.5	122.7741	-3.9976	1	122.8391	-1.864927	-1.219754E-005	0.000269	10	0.001262	0.1503763	0
	2	7	630996.1	123.951	-4.966552	1	124.0505	-2.294538	-1.249904E-005	0.0002684	10	0.001122	0.1360155	0
	3	9	501269.5	125.2003	-5.799916	1	125.3346	-2.652336	-1.280906E-005	0.0002562	10	0.0010403	0.1280975	0
	4	10	398144.5	126.5042	-6.521638	1	126.6722	-2.951142	-1.293328E-005	0.0002518	10	0.0009852	0.1230608	0
	5	12	316230.5	127.8781	-7.070494	1	128.0734	-3.164713	-1.310559E-005	0.0002414	10	0.0009403	0.1190764	0
	6	14	251191.4	129.2979	-7.498386	1	129.5151	-3.319043	-1.325508E-005	0.000229	10	0.0008929	0.1145761	0
	7	16	199628.9	130.7844	-7.787626	1	131.016	-3.407684	-1.33278E-005	0.0002097	10	0.0008549	0.1111578	0
	8	18	158496.1	132.2756	-7.926891	1	132.5129	-3.429467	-1.332906E-005	0.0002245	10	0.0008232	0.1084166	0
	9	19	125918	133.7956	-7.911424	1	134.0293	-3.383999	-1.333566E-005	0.000216	10	0.0007917	0.1056097	0
	10	21	100019.5	135.2678	-7.738365	1	135.4889	-3.274194	-2.157854E-006	0.0000987	10	0.0007486	0.1010084	0
	11	23	79511.72	136.6351	-7.455648	1	136.8384	-3.123312	-2.17235E-006	0.0000976	10	0.0007635	0.1042054	0
	12	25	63105.47	137.9458	-7.03539	1	138.1251	-2.919618	-2.238842E-006	9.278225E-005	10	0.0007416	0.1022629	0
	13	26	50214.84	139.1152	-6.508153	1	139.2673	-2.678486	-2.21105E-006	9.039463E-005	10	0.0007273	0.1011778	0
	14	28	39902.34	140.1488	-5.904791	1	140.2731	-2.412576	-2.206887E-006	9.343863E-005	10	0.0007182	0.1006776	0
	15	30	31699.22	141.0272	-5.255444	1	141.1251	-2.134166	-2.148455E-006	9.353267E-005	10	0.0007116	0.1003724	0
	16	32	25136.72	141.7533	-4.600013	1	141.8279	-1.858644	-2.140421E-006	9.116373E-005	10	0.0007068	0.1002136	0
	17	34	19980.47	142.3281	-3.974515	1	142.3836	-1.59957	-2.142042E-006	9.25822E-005	10	0.0007033	0.100115	0
	18	35	15878.91	142.7802	-3.388486	1	142.8204	-1.359499	-2.177007E-006	8.953147E-005	10	0.0007009	0.1000937	0
	19	37	12597.66	143.1309	-2.861861	1	143.1595	-1.14546	-2.183043E-006	9.335368E-005	10	0.0006989	0.1000431	0
	20	39	10019.53	143.3932	-2.403339	1	143.4134	-0.960215	-2.181915E-006	9.167229E-005	10	0.0006973	0.1000028	0
	21	41	7928.241	143.6016	-2.009045	1	143.6157	-0.8015391	-2.755492E-007	0.0001462	10	0.0006964	0.1000176	0
	22	42	6307.871	143.7436	-1.678331	1	143.7534	-0.6689472	-3.279971E-007	0.0001449	10	0.0006958	0.1000247	0
	23	44	5034.722	143.859	-1.414206	1	143.8659	-0.5632282	-1.88781E-006	0.0001207	10	0.0006763	0.0970565	0
	24	46	3993.056	143.9524	-1.183665	1	143.9573	-0.4711104	-1.830359E-006	0.000121	10	0.0007079	0.1017603	0
	25	48	3144.055	144.034	-0.990566	1	144.0374	-0.3940347	-1.86068E-006	0.0001193	10	0.0007	0.1007375	0
	26	49	2519.531	144.1018	-0.8446761	1	144.1042	-0.3358447	-1.821081E-006	0.0001197	10	0.0006962	0.1002703	0
	27	51	2000.762	144.1642	-0.7251328	1	144.166	-0.2881901	-1.832852E-006	0.0001213	10	0.0006948	0.1001405	0
	28	53	1580.669	144.2191	-0.6289947	1	144.2205	-0.2498873	-1.82948E-006	0.0001211	10	0.0006937	0.1000332	0
	29	55	1253.634	144.2702	-0.5545531	1	144.2713	-0.2202353	-1.832637E-006	0.0001215	10	0.0006933	0.1000178	0
	30	56	1000.702	144.3181	-0.498394	1	144.3189	-0.1978668	-1.901029E-006	0.0001222	10	0.0006929	0.0999878	0
	31	58	790.0281	144.3637	-0.4515226	1	144.3644	-0.1792019	-1.8559E-006	0.0001213	10	0.0006928	0.1000124	0
	32	60	628.811	144.4026	-0.4162059	1	144.4032	-0.165141	-1.851432E-006	0.0001211	10	0.0006923	0.0999676	0
	33	61	502.2321	144.4595	-0.3960058	1	144.4601	-0.1570641	-2.01655E-006	0.0001164	10	0.0006652	0.0954404	0
	34	63	400.1524	144.5007	-0.3673086	1	144.5012	-0.1456407	-2.019591E-006	0.0001178	10	0.0007136	0.1026345	0
	35	65	315.5048	144.541	-0.3461371	1	144.5415	-0.1372078	-2.031472E-006	0.0001183	10	0.0007017	0.1011278	0
	36	66	252.0161	144.5827	-0.3316161	1	144.5831	-0.1314138	-1.949356E-006	0.0001154	10	0.0006957	0.100396	0
	37	68	200.3205	144.6242	-0.3157799	1	144.6246	-0.1251023	-1.953455E-006	0.0001149	10	0.0006924	0.1000196	0
	38	70	158.0056	144.6618	-0.3017855	1	144.6622	-0.1195271	-1.948312E-006	0.0001162	10	0.0006895	0.0996709	0
	39	72	125.558	144.698	-0.2873795	1	144.6983	-0.113793	-1.848858E-006	0.0001191	10	0.0006854	0.0991282	0
	40	73	99.734	144.7354	-0.2756293	1	144.7357	-0.109112	-1.853032E-006	0.0001182	10	0.0006763	0.0978565	0
	41	75	79.44915	144.7683	-0.2489517	1	144.7685	-0.098529	-1.915172E-006	0.0001169	10	0.000711	0.1029092	0
	42	77	62.91946	144.7962	-0.2489894	1	144.7964	-0.0985249	-1.867688E-006	0.0001122	10	0.0006908	0.100008	0
	43	79	49.86702	144.8114	-0.2366193	1	144.8116	-0.0936202	-1.904053E-006	0.0001147	10	0.0006908	0.1000286	0
	44	80	38.42213	144.8357	-0.2192877	1	144.8359	-0.0867483	-1.912967E-006	0.000116	10	0.0006905	0.1000039	0
	45	82	31.25	144.8478	-0.2182673	1	144.848	-0.0863374	-1.904873E-006	0.0001159	10	0.0006904	0.1000008	0
	46	84	24.93351	144.8582	-0.2086514	1	144.8583	-0.0825279	-1.95106E-006	0.0001149	10	0.0006903	0.0999987	0
	47	86	20.03205	144.8604	-0.1972489	1	144.8606	-0.0780166	-2.007707E-006	0.0001142	10	0.0006903	0.1000005	0
	48	88	15.625	144.8683	-0.1932448	1	144.8684	-0.0764288	-1.988606E-006	0.0001145	10	0.0006903	0.0999986	0
	49	90	12.46675	144.8787	-0.1871091	1	144.8788	-0.0739968	-2.005454E-006	0.0001138	10	0.0006902	0.1000006	0
	50	92	9.9734	144.8788	-0.1827493	1	144.879	-0.0722725	-2.059761E-006	0.0001149	10	0.0006902	0.1000002	0
	51	94	7.971939	144.8826	-0.180112	1	144.8827	-0.0712277	-2.07326E-006	0.000115	10	0.0006902	0.0999991	0
	52	96	6.351626	144.886	-0.1796386	1	144.8861	-0.0710388	-2.045774E-006	0.0001156	10	0.0006902	0.1	0
	53	99	5.013369	144.8856	-0.1780148	1	144.8857	-0.0703968	-2.068767E-006	0.0001123	10	0.0006902	0.1	0
	54	101	3.985969	144.8777	-0.1754133	1	144.8778	-0.0693719	-2.032332E-006	0.0001149	10	0.0006902	0.0999998	0
	55	104	3.175813	144.8614	-0.1751787	1	144.8615	-0.0692869	-1.990481E-006	0.0001141	10	0.0006903	0.0999997	0
	56	107	2.516103	144.8552	-0.1567797	1	144.8553	-0.0620123	-1.953807E-006	0.0001175	10	0.0006651	0.0964886	0
	57	111	1.99553	144.8425	-0.1543158	1	144.8425	-0.0610431	-1.930496E-006	0.0001181	10	0.0007042	0.1020731	0
	58	116	1.587906	144.8536	-0.1596079	1	144.8537	-0.0631317	-1.842202E-006	0.0001171	10	0.000696	0.1008563	0
	59	121	1.258052	144.8532	-0.1631697	1	144.8533	-0.0645408	-1.817475E-006	0.0001171	10	0.0006927	0.1003667	0
	60	127	0.997765	144.8488	-0.1624432	1	144.8489	-0.0642553	-1.912256E-006	0.0001166	10	0.0006914	0.1001551	0
	61	133	0.7927448	144.8337	-0.1600947	1	144.8338	-0.063333	-1.835861E-006	0.0001177	10	0.0006909	0.100067	0
	62	140	0.6290258	144.8247	-0.1556779	1	144.8248	-0.0615895	-1.888695E-006	0.0001172	10	0.0006907	0.1000314	0
	63	148	0.4988825	144.8052	-0.149418	1	144.8053	-0.0591209	-1.678028E-006	0.0001162	10	0.0006907	0.1000163	0
	64	158	0.3985969	144.767	-0.1451823	1	144.7671	-0.0574601	-1.456673E-006	0.0001178	10	0.0006908	0.1000081	0
