EXPLAIN
TAG	EISPOT
TITLE	LABEL	Potentiostatic EIS	Test Identifier
DATE	LABEL	2025/12/23	Date
TIME	LABEL	23:41:49	Time
NOTES	NOTES	1	Notes...
	
PSTAT	PSTAT	IFC1000-11123	Potentiostat
VDC	POTEN	0.00000E+000	T	DC Voltage (V)
FREQINIT	QUANT	1.00000E+006	Initial Freq. (Hz)
FREQFINAL	QUANT	5.00000E-001	Final Freq. (Hz)
PTSPERDEC	QUANT	1.00000E+001	Points/decade
VAC	QUANT	1.00000E+002	AC Voltage (mV rms)
AREA	QUANT	7.85000E-001	Sample Area (cm^2)
SPEED	SELECTOR	1	Optimize for:
DRIFTCOR	SELECTOR	0	Drift Correction
THD	SELECTOR	0	THD
ZGUESS	QUANT	1.00000E+002	Estimated Z (ohms)
EOC	QUANT	-1.020697E-005	Open Circuit (V)
SEQUENCER	TOGGLE	TRUE	Run as Sequence
PSTATMODEL	IQUANT	48	Pstat Model
PSTATSECTION	LABEL	IFC1000-11123	Pstat Section
PSTATSERIALNO	LABEL	11123	Pstat Serial Number
CTRLMODE	IQUANT	1	Control Mode
ELECTROMETER	IQUANT	0	RE=0 or CS=1
IESTAB	IQUANT	0	I/E Stability
CASPEED	IQUANT	3	Control Amp Speed
CONVENTION	IQUANT	1	Current Convention
ICHRANGE	IQUANT	2	Ich Range
ICHRANGEMODE	TOGGLE	F	Ich Auto Range
ICHOFFSETENABLE	TOGGLE	T	Ich Offset Enable
ICHOFFSET	QUANT	0	Ich Offset (V)
ICHFILTER	IQUANT	4	Ich Filter
VCHRANGE	IQUANT	2	Vch Range
VCHRANGEMODE	TOGGLE	F	Vch Auto Range
VCHOFFSETENABLE	TOGGLE	T	Vch Offset Enable
VCHOFFSET	QUANT	0	Vch Offset (V)
VCHFILTER	IQUANT	4	Vch Filter
IERANGELOWERLIMIT	IQUANT	4	I/E Range Lower Limit
IERANGEMODE	TOGGLE	F	I/E AutoRange
IERANGE	IQUANT	11	I/E Range
ACHSELECT	IQUANT	0	Ach Select
ACHRANGE	IQUANT	2	Ach Range
ACHOFFSETENABLE	TOGGLE	F	Ach Offset Enable
ACHOFFSET	QUANT	0	Ach Offset (V)
ACHFILTER	IQUANT	1	Ach Filter
SENSECABLEID	IQUANT	14	Sense Cable ID
PWRCABLEID	IQUANT	14	Power Cable ID
DCCALDATE	LABEL	5/23/2025	DC Calibration Date
ACCALDATE	LABEL	4/29/2023	AC Calibration Date
FRAMEWORKVERSION	LABEL	7.10.0	Framework Version
INSTRUMENTVERSION	LABEL	4.72	Instrument Version
COMMVERSION	LABEL	3.10	Communications Version
CPUPLDVERSION	LABEL	1.10	CPU PLD Version
CTRLPLDVERSION	LABEL	0.00	CTRL PLD Version
PSTATPLDVERSION	LABEL	0.00	PSTAT PLD Version
ZCURVE	TABLE
	Pt	Time	Freq	Zreal	Zimag	Zsig	Zmod	Zphz	Idc	Vdc	IERange	Imod	Vmod	Temp
	#	s	Hz	ohm	ohm	V	ohm	°	A	V	#	A	V	°C
	0	4	1000020	122.0147	-3.008992	1	122.0518	-1.412679	-1.239836E-005	0.0002729	10	0.0008528	0.0999384	0
	1	5	794355.5	123.118	-4.140429	1	123.1876	-1.926118	-1.237476E-005	0.0002701	10	0.0012608	0.1506564	0
	2	7	630996.1	124.3003	-5.088581	1	124.4044	-2.344254	-1.271153E-005	0.0002704	10	0.0011194	0.1360869	0
	3	9	501269.5	125.5539	-5.919149	1	125.6934	-2.69917	-1.290964E-005	0.0002583	10	0.0010377	0.1281474	0
	4	11	398144.5	126.8748	-6.610968	1	127.047	-2.982769	-1.292285E-005	0.0002506	10	0.0009799	0.1227624	0
	5	13	316230.5	128.2413	-7.172597	1	128.4418	-3.201244	-1.31869E-005	0.0002444	10	0.0009379	0.1191102	0
	6	14	251191.4	129.6726	-7.603754	1	129.8954	-3.355872	-1.326511E-005	0.0002336	10	0.0008904	0.1145943	0
	7	16	199628.9	131.1312	-7.890146	1	131.3683	-3.443328	-1.33642E-005	0.0002123	10	0.0008527	0.1111711	0
	8	18	158496.1	132.6375	-8.044749	1	132.8813	-3.47086	-1.338334E-005	0.0002253	10	0.0008208	0.108399	0
	9	20	125918	134.1405	-8.087326	1	134.3841	-3.450183	-1.334503E-005	0.0002187	10	0.0007897	0.1056203	0
	10	21	100019.5	135.6002	-7.866775	1	135.8282	-3.320264	-2.234463E-006	0.0001026	10	0.0007465	0.1009862	0
	11	23	79511.72	136.9604	-7.58455	1	137.1703	-3.16967	-2.23053E-006	0.0000972	10	0.0007619	0.1042396	0
	12	25	63105.47	138.2756	-7.163702	1	138.4611	-2.965694	-2.197797E-006	9.381567E-005	10	0.0007396	0.102237	0
	13	27	50214.84	139.4561	-6.644943	1	139.6143	-2.728024	-2.185069E-006	9.315083E-005	10	0.0007258	0.101213	0
	14	29	39902.34	140.4953	-6.032872	1	140.6248	-2.458771	-2.177797E-006	9.46967E-005	10	0.0007162	0.1006497	0
	15	30	31699.22	141.3769	-5.381906	1	141.4793	-2.18007	-2.156246E-006	9.230373E-005	10	0.0007098	0.1003738	0
	16	32	25136.72	142.1132	-4.714374	1	142.1914	-1.899997	-2.151466E-006	9.112473E-005	10	0.000705	0.1002165	0
	17	34	19980.47	142.6903	-4.077967	1	142.7486	-1.637018	-2.156748E-006	9.217148E-005	10	0.0007015	0.1001198	0
	18	36	15878.91	143.1445	-3.481669	1	143.1868	-1.393317	-2.1769E-006	9.328667E-005	10	0.0006989	0.1000659	0
	19	37	12597.66	143.5008	-2.945815	1	143.5311	-1.176015	-2.243493E-006	8.996017E-005	10	0.0006971	0.1000426	0
	20	39	10019.53	143.7684	-2.47643	1	143.7897	-0.98683	-2.189249E-006	9.068465E-005	10	0.0006958	0.1000393	0
	21	41	7928.241	143.9782	-2.063543	1	143.993	-0.8211256	-2.661022E-007	0.000147	10	0.0006946	0.1000205	0
	22	43	6307.871	144.1298	-1.728127	1	144.1402	-0.6869476	-3.47186E-007	0.0001465	10	0.0006938	0.0999973	0
	23	44	5034.722	144.2376	-1.455791	1	144.245	-0.5782667	-1.968961E-006	0.0001198	10	0.0006746	0.0970584	0
	24	46	3993.056	144.3261	-1.219065	1	144.3313	-0.4839431	-1.917907E-006	0.0001196	10	0.0007061	0.1017625	0
	25	48	3144.055	144.3974	-1.017848	1	144.401	-0.4038677	-1.872013E-006	0.0001197	10	0.0006982	0.1007405	0
	26	50	2519.531	144.4494	-0.8692282	1	144.452	-0.3447749	-1.894828E-006	0.000118	10	0.0006945	0.1002722	0
	27	51	2000.762	144.4911	-0.7454607	1	144.493	-0.2955987	-1.858471E-006	0.0001183	10	0.0006931	0.100112	0
	28	53	1580.669	144.5289	-0.6439114	1	144.5304	-0.2552648	-1.850094E-006	0.000119	10	0.0006925	0.1000668	0
	29	55	1253.634	144.5582	-0.568841	1	144.5593	-0.2254595	-1.771386E-006	0.0001174	10	0.000692	0.1000176	0
	30	57	1000.702	144.5899	-0.5099759	1	144.5908	-0.2020843	-1.72895E-006	0.0001184	10	0.0006916	0.0999899	0
	31	58	790.0281	144.6282	-0.4640884	1	144.629	-0.1838522	-1.733047E-006	0.0001187	10	0.0006913	0.0999831	0
	32	60	628.811	144.6673	-0.4273352	1	144.6679	-0.1692465	-1.825095E-006	0.0001184	10	0.0006913	0.1000016	0
	33	62	502.2321	144.7203	-0.4073426	1	144.7209	-0.1612694	-1.90374E-006	0.0001184	10	0.000664	0.0954421	0
	34	63	400.1524	144.7573	-0.3817471	1	144.7578	-0.1510974	-1.908658E-006	0.0001163	10	0.0007123	0.1026368	0
	35	65	315.5048	144.7936	-0.3586456	1	144.794	-0.1419182	-1.878003E-006	0.0001189	10	0.0007005	0.101131	0
	36	67	252.0161	144.8333	-0.3427404	1	144.8337	-0.1355872	-1.875542E-006	0.0001143	10	0.0006943	0.1003668	0
	37	68	200.3205	144.8677	-0.3289583	1	144.868	-0.1301042	-1.868731E-006	0.0001155	10	0.0006913	0.1000209	0
	38	70	158.0056	144.901	-0.3115962	1	144.9013	-0.1232091	-1.840631E-006	0.0001145	10	0.0006886	0.0997043	0
	39	72	125.558	144.9351	-0.3002429	1	144.9354	-0.1186919	-1.904304E-006	0.0001181	10	0.0006841	0.0991021	0
	40	74	99.734	144.9703	-0.2867192	1	144.9706	-0.1133182	-1.887393E-006	0.000113	10	0.0006752	0.0978606	0
	41	75	79.44915	145.0077	-0.2621683	1	145.008	-0.1035884	-1.96623E-006	0.0001133	10	0.0007098	0.1028994	0
	42	77	62.91946	145.0493	-0.260348	1	145.0495	-0.1028397	-1.97005E-006	0.0001138	10	0.0006896	0.1000104	0
	43	79	49.86702	145.0868	-0.2449147	1	145.087	-0.0967184	-1.98412E-006	0.0001165	10	0.0006895	0.1000296	0
	44	81	38.42213	145.1308	-0.2250999	1	145.1309	-0.0888665	-2.009453E-006	0.0001158	10	0.0006891	0.1000011	0
	45	82	31.25	145.1603	-0.2244764	1	145.1605	-0.0886023	-1.960454E-006	0.0001147	10	0.0006889	0.1000023	0
	46	84	24.93351	145.1942	-0.2130917	1	145.1944	-0.0840891	-2.004011E-006	0.0001156	10	0.0006887	0.0999986	0
	47	86	20.03205	145.2202	-0.2053242	1	145.2203	-0.0810094	-1.972643E-006	0.0001144	10	0.0006886	0.0999995	0
	48	88	15.625	145.2502	-0.1984146	1	145.2504	-0.0782671	-1.910537E-006	0.0001157	10	0.0006885	0.0999995	0
	49	90	12.46675	145.2742	-0.191273	1	145.2743	-0.0754376	-1.875217E-006	0.0001162	10	0.0006884	0.0999996	0
	50	92	9.9734	145.299	-0.1859794	1	145.2991	-0.0733372	-1.900159E-006	0.0001142	10	0.0006882	0.1000001	0
	51	94	7.971939	145.3217	-0.1808904	1	145.3218	-0.0713194	-1.958034E-006	0.0001156	10	0.0006881	0.0999996	0
	52	97	6.351626	145.3474	-0.1790683	1	145.3475	-0.0705885	-1.99296E-006	0.0001138	10	0.000688	0.1000001	0
	53	99	5.013369	145.3727	-0.1770933	1	145.3728	-0.0697978	-2.004836E-006	0.0001118	10	0.0006879	0.0999996	0
	54	102	3.985969	145.3996	-0.173977	1	145.3997	-0.0685569	-1.974696E-006	0.0001145	10	0.0006878	0.1000003	0
	55	105	3.175813	145.4356	-0.1757955	1	145.4357	-0.0692563	-1.98678E-006	0.0001143	10	0.0006876	0.0999999	0
	56	108	2.516103	145.4691	-0.1550653	1	145.4692	-0.0610754	-1.925442E-006	0.0001155	10	0.0006623	0.0964877	0
	57	112	1.99553	145.4942	-0.1527001	1	145.4943	-0.0601335	-1.831721E-006	0.0001173	10	0.000701	0.1020737	0
	58	116	1.587906	145.5271	-0.1591941	1	145.5272	-0.0626766	-1.627873E-006	0.0001178	10	0.0006928	0.100856	0
	59	121	1.258052	145.5544	-0.1598348	1	145.5545	-0.0629171	-1.671631E-006	0.0001175	10	0.0006894	0.1003664	0
	60	127	0.997765	145.5688	-0.16064	1	145.5689	-0.0632277	-1.592971E-006	0.0001181	10	0.0006879	0.1001551	0
	61	133	0.7927448	145.5931	-0.1560792	1	145.5931	-0.0614224	-1.43774E-006	0.0001172	10	0.0006873	0.1000672	0
	62	140	0.6290258	145.6202	-0.1548514	1	145.6203	-0.0609279	-1.49696E-006	0.0001171	10	0.0006869	0.100032	0
	63	149	0.4988825	145.6768	-0.149089	1	145.6768	-0.0586378	-1.412643E-006	0.0001159	10	0.0006865	0.1000156	0
	64	159	0.3985969	145.6606	-0.1427749	1	145.6607	-0.0561607	-1.472735E-006	0.0001161	10	0.0006866	0.1000082	0
