EXPLAIN
TAG	EISPOT
TITLE	LABEL	Potentiostatic EIS	Test Identifier
DATE	LABEL	2025/12/23	Date
TIME	LABEL	21:38:59	Time
NOTES	NOTES	1	Notes...
	
PSTAT	PSTAT	IFC1000-11123	Potentiostat
VDC	POTEN	0.00000E+000	T	DC Voltage (V)
FREQINIT	QUANT	1.00000E+006	Initial Freq. (Hz)
FREQFINAL	QUANT	5.00000E-001	Final Freq. (Hz)
PTSPERDEC	QUANT	1.00000E+001	Points/decade
VAC	QUANT	1.00000E+002	AC Voltage (mV rms)
AREA	QUANT	7.85000E-001	Sample Area (cm^2)
SPEED	SELECTOR	1	Optimize for:
DRIFTCOR	SELECTOR	0	Drift Correction
THD	SELECTOR	0	THD
ZGUESS	QUANT	1.00000E+002	Estimated Z (ohms)
EOC	QUANT	-9.906413E-006	Open Circuit (V)
SEQUENCER	TOGGLE	TRUE	Run as Sequence
PSTATMODEL	IQUANT	48	Pstat Model
PSTATSECTION	LABEL	IFC1000-11123	Pstat Section
PSTATSERIALNO	LABEL	11123	Pstat Serial Number
CTRLMODE	IQUANT	1	Control Mode
ELECTROMETER	IQUANT	0	RE=0 or CS=1
IESTAB	IQUANT	0	I/E Stability
CASPEED	IQUANT	3	Control Amp Speed
CONVENTION	IQUANT	1	Current Convention
ICHRANGE	IQUANT	2	Ich Range
ICHRANGEMODE	TOGGLE	F	Ich Auto Range
ICHOFFSETENABLE	TOGGLE	T	Ich Offset Enable
ICHOFFSET	QUANT	0	Ich Offset (V)
ICHFILTER	IQUANT	4	Ich Filter
VCHRANGE	IQUANT	2	Vch Range
VCHRANGEMODE	TOGGLE	F	Vch Auto Range
VCHOFFSETENABLE	TOGGLE	T	Vch Offset Enable
VCHOFFSET	QUANT	0	Vch Offset (V)
VCHFILTER	IQUANT	4	Vch Filter
IERANGELOWERLIMIT	IQUANT	4	I/E Range Lower Limit
IERANGEMODE	TOGGLE	F	I/E AutoRange
IERANGE	IQUANT	11	I/E Range
ACHSELECT	IQUANT	0	Ach Select
ACHRANGE	IQUANT	2	Ach Range
ACHOFFSETENABLE	TOGGLE	F	Ach Offset Enable
ACHOFFSET	QUANT	0	Ach Offset (V)
ACHFILTER	IQUANT	1	Ach Filter
SENSECABLEID	IQUANT	14	Sense Cable ID
PWRCABLEID	IQUANT	14	Power Cable ID
DCCALDATE	LABEL	5/23/2025	DC Calibration Date
ACCALDATE	LABEL	4/29/2023	AC Calibration Date
FRAMEWORKVERSION	LABEL	7.10.0	Framework Version
INSTRUMENTVERSION	LABEL	4.72	Instrument Version
COMMVERSION	LABEL	3.10	Communications Version
CPUPLDVERSION	LABEL	1.10	CPU PLD Version
CTRLPLDVERSION	LABEL	0.00	CTRL PLD Version
PSTATPLDVERSION	LABEL	0.00	PSTAT PLD Version
ZCURVE	TABLE
	Pt	Time	Freq	Zreal	Zimag	Zsig	Zmod	Zphz	Idc	Vdc	IERange	Imod	Vmod	Temp
	#	s	Hz	ohm	ohm	V	ohm	°	A	V	#	A	V	°C
	0	4	1000020	121.3302	-2.676555	1	121.3597	-1.263745	-1.232716E-005	0.0002711	10	0.0008591	0.1001007	0
	1	5	794355.5	122.3715	-3.816156	1	122.4309	-1.786191	-1.20512E-005	0.0002805	10	0.0012673	0.1505056	0
	2	7	630996.1	123.5182	-4.809198	1	123.6118	-2.229693	-1.255486E-005	0.0002631	10	0.0011255	0.1359677	0
	3	9	501269.5	124.7444	-5.651829	1	124.8724	-2.594141	-1.268748E-005	0.000254	10	0.0010439	0.1280627	0
	4	11	398144.5	126.0312	-6.35963	1	126.1915	-2.888739	-1.274227E-005	0.0002516	10	0.0009887	0.1230395	0
	5	13	316230.5	127.4007	-6.937059	1	127.5894	-3.116718	-1.30306E-005	0.0002443	10	0.0009437	0.119053	0
	6	14	251191.4	128.816	-7.363153	1	129.0262	-3.271481	-1.299999E-005	0.0002332	10	0.0008962	0.1145624	0
	7	16	199628.9	130.2568	-7.630327	1	130.4801	-3.352504	-1.313543E-005	0.0002124	10	0.0008584	0.111151	0
	8	18	158496.1	131.7461	-7.742053	1	131.9734	-3.363115	-1.321133E-005	0.0002231	10	0.0008273	0.1085096	0
	9	20	125918	133.2067	-7.723114	1	133.4304	-3.318204	-1.314234E-005	0.000218	10	0.0007954	0.105627	0
	10	22	100019.5	134.6445	-7.52112	1	134.8544	-3.197169	-2.019679E-006	0.0000987	10	0.0007518	0.1009693	0
	11	23	79511.72	135.9571	-7.22223	1	136.1488	-3.040774	-2.006147E-006	0.0000956	10	0.0007675	0.1042243	0
	12	25	63105.47	137.2097	-6.778944	1	137.3771	-2.828439	-2.043024E-006	9.126402E-005	10	0.0007456	0.1022534	0
	13	27	50214.84	138.3255	-6.244477	1	138.4663	-2.584769	-2.057305E-006	9.017711E-005	10	0.0007317	0.1012028	0
	14	29	39902.34	139.3113	-5.634472	1	139.4252	-2.316076	-2.02043E-006	9.025505E-005	10	0.0007226	0.100672	0
	15	30	31699.22	140.1323	-5.000471	1	140.2215	-2.043672	-1.966408E-006	9.049667E-005	10	0.0007161	0.1003618	0
	16	32	25136.72	140.8121	-4.356616	1	140.8795	-1.772121	-2.032312E-006	8.882832E-005	10	0.0007117	0.1002376	0
	17	34	19980.47	141.3526	-3.753072	1	141.4025	-1.52091	-1.929722E-006	8.97568E-005	10	0.0007081	0.1001113	0
	18	36	15878.91	141.7745	-3.19311	1	141.8104	-1.290224	-2.024848E-006	8.997122E-005	10	0.0007059	0.1000901	0
	19	37	12597.66	142.1056	-2.694655	1	142.1311	-1.086332	-2.033934E-006	8.753664E-005	10	0.0007039	0.1000377	0
	20	39	10019.53	142.3365	-2.262956	1	142.3545	-0.9108478	-1.920933E-006	9.074318E-005	10	0.0007025	0.1000003	0
	21	41	7928.241	142.5237	-1.880463	1	142.5361	-0.755919	-1.324579E-007	0.0001427	10	0.0007017	0.1000135	0
	22	43	6307.871	142.6629	-1.577614	1	142.6716	-0.6335701	-6.727214E-008	0.0001447	10	0.0007011	0.1000223	0
	23	44	5034.722	142.7652	-1.327613	1	142.7713	-0.5327941	-1.666298E-006	0.0001184	10	0.0006815	0.0970554	0
	24	46	3993.056	142.8447	-1.112297	1	142.849	-0.4461392	-1.689905E-006	0.0001187	10	0.0007134	0.1017583	0
	25	48	3144.055	142.906	-0.9293682	1	142.909	-0.3726096	-1.751415E-006	0.0001173	10	0.0007055	0.100735	0
	26	50	2519.531	142.9531	-0.7950094	1	142.9553	-0.3186375	-1.730641E-006	0.0001171	10	0.000702	0.1002987	0
	27	51	2000.762	142.9944	-0.6815475	1	142.996	-0.2730842	-1.781344E-006	0.0001185	10	0.0007003	0.1001074	0
	28	53	1580.669	143.0311	-0.5907181	1	143.0323	-0.2366301	-1.780626E-006	0.0001191	10	0.0006997	0.1000607	0
	29	55	1253.634	143.0659	-0.5200674	1	143.0668	-0.2082784	-1.823925E-006	0.000118	10	0.0006992	0.1000137	0
	30	57	1000.702	143.0971	-0.4651584	1	143.0978	-0.1862478	-1.919876E-006	0.000121	10	0.0006988	0.0999855	0
	31	58	790.0281	143.1269	-0.4217683	1	143.1275	-0.1688395	-1.912067E-006	0.0001187	10	0.0006988	0.1000086	0
	32	60	628.811	143.1592	-0.3890384	1	143.1597	-0.1557022	-1.911999E-006	0.000118	10	0.0006985	0.0999964	0
	33	62	502.2321	143.2016	-0.3679846	1	143.202	-0.1472325	-2.004672E-006	0.0001167	10	0.000671	0.0954378	0
	34	64	400.1524	143.2353	-0.3388812	1	143.2357	-0.1355561	-1.912626E-006	0.0001163	10	0.0007199	0.1026319	0
	35	66	315.5048	143.2653	-0.3174195	1	143.2656	-0.1269447	-2.004855E-006	0.0001162	10	0.000708	0.1011239	0
	36	67	252.0161	143.3039	-0.3003886	1	143.3042	-0.1201012	-2.055558E-006	0.0001134	10	0.0007017	0.1003612	0
	37	69	200.3205	143.3414	-0.283322	1	143.3417	-0.113248	-1.991543E-006	0.0001134	10	0.0006988	0.1000453	0
	38	71	158.0056	143.3801	-0.2734388	1	143.3803	-0.1092682	-1.956759E-006	0.0001132	10	0.0006957	0.0996674	0
	39	72	125.558	143.4126	-0.2590422	1	143.4128	-0.1034917	-1.896411E-006	0.0001169	10	0.0006915	0.0991236	0
	40	74	99.734	143.4414	-0.2477918	1	143.4416	-0.0989771	-1.930055E-006	0.0001135	10	0.0006826	0.0978769	0
	41	76	79.44915	143.4719	-0.2232958	1	143.472	-0.0891736	-2.037771E-006	0.0001114	10	0.0007173	0.1028882	0
	42	78	62.91946	143.4982	-0.2224775	1	143.4984	-0.0888305	-2.005788E-006	0.0001095	10	0.000697	0.1000099	0
	43	79	49.86702	143.5164	-0.2131358	1	143.5165	-0.0850898	-1.990404E-006	0.0001116	10	0.000697	0.1000283	0
	44	81	38.42213	143.5423	-0.1957572	1	143.5425	-0.0781376	-1.981206E-006	0.0001131	10	0.0006967	0.1000049	0
	45	83	31.25	143.5571	-0.2007743	1	143.5573	-0.0801319	-1.940002E-006	0.000112	10	0.0006966	0.0999996	0
	46	85	24.93351	143.5795	-0.1921469	1	143.5797	-0.0766766	-1.934714E-006	0.0001137	10	0.0006965	0.0999994	0
	47	87	20.03205	143.5995	-0.1845161	1	143.5996	-0.0736214	-1.987312E-006	0.00011	10	0.0006964	0.1000002	0
	48	89	15.625	143.6167	-0.1824054	1	143.6168	-0.0727705	-1.940678E-006	0.0001117	10	0.0006963	0.0999997	0
	49	91	12.46675	143.6371	-0.1792547	1	143.6372	-0.0715033	-1.939776E-006	0.0001119	10	0.0006962	0.0999998	0
	50	93	9.9734	143.6546	-0.1777387	1	143.6547	-0.07089	-1.942637E-006	0.0001122	10	0.0006961	0.1000002	0
	51	95	7.971939	143.668	-0.176375	1	143.6681	-0.0703395	-1.931908E-006	0.0001133	10	0.000696	0.0999989	0
	52	97	6.351626	143.6946	-0.1735691	1	143.6947	-0.0692077	-1.888902E-006	0.0001137	10	0.0006959	0.1000002	0
	53	99	5.013369	143.7159	-0.1746311	1	143.716	-0.0696209	-1.895033E-006	0.0001118	10	0.0006958	0.099999	0
	54	102	3.985969	143.7458	-0.175609	1	143.7459	-0.0699961	-1.877204E-006	0.0001142	10	0.0006957	0.1000002	0
	55	105	3.175813	143.7796	-0.1747913	1	143.7797	-0.0696538	-1.84913E-006	0.0001148	10	0.0006955	0.0999997	0
	56	108	2.516103	143.8001	-0.155521	1	143.8002	-0.0619658	-1.84549E-006	0.000115	10	0.00067	0.096491	0
	57	112	1.99553	143.8027	-0.1592547	1	143.8028	-0.0634523	-1.789626E-006	0.0001152	10	0.0007093	0.1020731	0
	58	117	1.587906	143.8292	-0.1648521	1	143.8293	-0.0656704	-1.905426E-006	0.0001148	10	0.0007009	0.1008556	0
	59	122	1.258052	143.8585	-0.1646862	1	143.8586	-0.065591	-1.918706E-006	0.000114	10	0.0006975	0.1003664	0
	60	128	0.997765	143.8873	-0.1664504	1	143.8874	-0.0662803	-2.051579E-006	0.0001143	10	0.000696	0.1001549	0
	61	134	0.7927448	143.9119	-0.1636531	1	143.912	-0.0651553	-2.089408E-006	0.000115	10	0.0006953	0.1000673	0
	62	141	0.6290258	143.9128	-0.1575224	1	143.9129	-0.0627141	-2.043388E-006	0.0001152	10	0.0006951	0.1000321	0
	63	149	0.4988825	143.9257	-0.1542662	1	143.9258	-0.0614122	-1.995113E-006	0.0001147	10	0.0006949	0.1000152	0
	64	159	0.3985969	143.9316	-0.1453643	1	143.9316	-0.0578661	-1.934442E-006	0.0001154	10	0.0006948	0.1000087	0
