EXPLAIN
TAG	EISPOT
TITLE	LABEL	Potentiostatic EIS	Test Identifier
DATE	LABEL	2025/12/24	Date
TIME	LABEL	4:15:49	Time
NOTES	NOTES	1	Notes...
	
PSTAT	PSTAT	IFC1000-11123	Potentiostat
VDC	POTEN	0.00000E+000	T	DC Voltage (V)
FREQINIT	QUANT	1.00000E+006	Initial Freq. (Hz)
FREQFINAL	QUANT	5.00000E-001	Final Freq. (Hz)
PTSPERDEC	QUANT	1.00000E+001	Points/decade
VAC	QUANT	1.00000E+002	AC Voltage (mV rms)
AREA	QUANT	7.85000E-001	Sample Area (cm^2)
SPEED	SELECTOR	1	Optimize for:
DRIFTCOR	SELECTOR	0	Drift Correction
THD	SELECTOR	0	THD
ZGUESS	QUANT	1.00000E+002	Estimated Z (ohms)
EOC	QUANT	-6.044613E-006	Open Circuit (V)
SEQUENCER	TOGGLE	TRUE	Run as Sequence
PSTATMODEL	IQUANT	48	Pstat Model
PSTATSECTION	LABEL	IFC1000-11123	Pstat Section
PSTATSERIALNO	LABEL	11123	Pstat Serial Number
CTRLMODE	IQUANT	1	Control Mode
ELECTROMETER	IQUANT	0	RE=0 or CS=1
IESTAB	IQUANT	0	I/E Stability
CASPEED	IQUANT	3	Control Amp Speed
CONVENTION	IQUANT	1	Current Convention
ICHRANGE	IQUANT	2	Ich Range
ICHRANGEMODE	TOGGLE	F	Ich Auto Range
ICHOFFSETENABLE	TOGGLE	T	Ich Offset Enable
ICHOFFSET	QUANT	0	Ich Offset (V)
ICHFILTER	IQUANT	4	Ich Filter
VCHRANGE	IQUANT	2	Vch Range
VCHRANGEMODE	TOGGLE	F	Vch Auto Range
VCHOFFSETENABLE	TOGGLE	T	Vch Offset Enable
VCHOFFSET	QUANT	0	Vch Offset (V)
VCHFILTER	IQUANT	4	Vch Filter
IERANGELOWERLIMIT	IQUANT	4	I/E Range Lower Limit
IERANGEMODE	TOGGLE	F	I/E AutoRange
IERANGE	IQUANT	11	I/E Range
ACHSELECT	IQUANT	0	Ach Select
ACHRANGE	IQUANT	2	Ach Range
ACHOFFSETENABLE	TOGGLE	F	Ach Offset Enable
ACHOFFSET	QUANT	0	Ach Offset (V)
ACHFILTER	IQUANT	1	Ach Filter
SENSECABLEID	IQUANT	14	Sense Cable ID
PWRCABLEID	IQUANT	14	Power Cable ID
DCCALDATE	LABEL	5/23/2025	DC Calibration Date
ACCALDATE	LABEL	4/29/2023	AC Calibration Date
FRAMEWORKVERSION	LABEL	7.10.0	Framework Version
INSTRUMENTVERSION	LABEL	4.72	Instrument Version
COMMVERSION	LABEL	3.10	Communications Version
CPUPLDVERSION	LABEL	1.10	CPU PLD Version
CTRLPLDVERSION	LABEL	0.00	CTRL PLD Version
PSTATPLDVERSION	LABEL	0.00	PSTAT PLD Version
ZCURVE	TABLE
	Pt	Time	Freq	Zreal	Zimag	Zsig	Zmod	Zphz	Idc	Vdc	IERange	Imod	Vmod	Temp
	#	s	Hz	ohm	ohm	V	ohm	°	A	V	#	A	V	°C
	0	3	1000020	123.0112	-3.750793	1	123.0684	-1.746491	-1.201015E-005	0.0002577	10	0.0008453	0.0998874	0
	1	5	794355.5	124.2584	-4.833338	1	124.3524	-2.227538	-1.179976E-005	0.0002617	10	0.0012484	0.150587	0
	2	7	630996.1	125.5647	-5.735276	1	125.6956	-2.615216	-1.221164E-005	0.0002651	10	0.0011077	0.1360714	0
	3	9	501269.5	126.932	-6.533519	1	127.1	-2.946563	-1.232179E-005	0.0002537	10	0.0010253	0.128035	0
	4	10	398144.5	128.3173	-7.193381	1	128.5188	-3.208604	-1.234476E-005	0.0002515	10	0.0009699	0.1229232	0
	5	12	316230.5	129.7561	-7.713027	1	129.9851	-3.401801	-1.261578E-005	0.0002365	10	0.0009247	0.1188407	0
	6	14	251191.4	131.2392	-8.136786	1	131.4912	-3.547778	-1.270727E-005	0.0002282	10	0.0008803	0.1146824	0
	7	16	199628.9	132.7664	-8.415215	1	133.0328	-3.626762	-1.290039E-005	0.0002114	10	0.0008426	0.1112426	0
	8	17	158496.1	134.3337	-8.591043	1	134.6081	-3.659255	-1.28502E-005	0.0002242	10	0.00081	0.1083722	0
	9	19	125918	135.9144	-8.61062	1	136.1868	-3.625031	-1.301444E-005	0.0002202	10	0.0007791	0.1056022	0
	10	21	100019.5	137.4706	-8.467038	1	137.7311	-3.524487	-1.655302E-006	0.0001016	10	0.0007362	0.1009877	0
	11	23	79511.72	138.94	-8.222668	1	139.1831	-3.386896	-1.638657E-006	0.0000964	10	0.0007507	0.1042051	0
	12	25	63105.47	140.3775	-7.830086	1	140.5957	-3.19258	-1.629297E-006	0.0000952	10	0.0007285	0.1022552	0
	13	26	50214.84	141.6946	-7.319748	1	141.8835	-2.957193	-1.650861E-006	9.243569E-005	10	0.0007138	0.1011683	0
	14	28	39902.34	142.8725	-6.702346	1	143.0297	-2.685854	-1.602035E-006	9.045785E-005	10	0.0007043	0.1006619	0
	15	30	31699.22	143.884	-6.022783	1	144.01	-2.396922	-1.51651E-006	9.050575E-005	10	0.0006974	0.1003819	0
	16	32	25136.72	144.7357	-5.320495	1	144.8335	-2.105249	-1.506058E-006	8.957001E-005	10	0.0006922	0.1002204	0
	17	33	19980.47	145.4353	-4.630786	1	145.509	-1.823731	-1.545459E-006	8.901278E-005	10	0.0006882	0.1001233	0
	18	35	15878.91	145.9834	-3.981128	1	146.0377	-1.562132	-1.671334E-006	9.041064E-005	10	0.0006853	0.1000679	0
	19	37	12597.66	146.4101	-3.383787	1	146.4492	-1.323967	-1.594473E-006	9.076402E-005	10	0.0006832	0.1000476	0
	20	39	10019.53	146.7305	-2.852876	1	146.7582	-1.11386	-1.709414E-006	9.175076E-005	10	0.0006815	0.1000058	0
	21	40	7928.241	146.9924	-2.388151	1	147.0118	-0.9307891	1.806261E-007	0.0001495	10	0.0006804	0.1000234	0
	22	42	6307.871	147.172	-2.002984	1	147.1856	-0.7797372	2.394127E-007	0.0001494	10	0.0006794	0.099998	0
	23	44	5034.722	147.3027	-1.683624	1	147.3124	-0.6548442	-1.362474E-006	0.00012	10	0.0006605	0.0970594	0
	24	46	3993.056	147.4028	-1.406457	1	147.4095	-0.5466762	-1.469817E-006	0.0001181	10	0.0006913	0.1017622	0
	25	47	3144.055	147.4864	-1.173125	1	147.4911	-0.4557279	-1.348485E-006	0.0001189	10	0.0006836	0.1007416	0
	26	49	2519.531	147.5437	-0.996155	1	147.5471	-0.3868318	-1.29418E-006	0.0001194	10	0.0006799	0.1002712	0
	27	51	2000.762	147.5931	-0.8489919	1	147.5956	-0.3295757	-1.192222E-006	0.0001199	10	0.0006785	0.1001139	0
	28	53	1580.669	147.6368	-0.7298349	1	147.6386	-0.2832364	-1.147268E-006	0.0001177	10	0.0006779	0.1000667	0
	29	54	1253.634	147.6802	-0.637753	1	147.6815	-0.2474288	-1.18329E-006	0.0001182	10	0.0006774	0.1000204	0
	30	56	1000.702	147.7223	-0.5705611	1	147.7234	-0.2212976	-1.247401E-006	0.000118	10	0.0006769	0.0999894	0
	31	58	790.0281	147.7687	-0.5136554	1	147.7696	-0.1991638	-1.225014E-006	0.0001174	10	0.0006766	0.0999824	0
	32	60	628.811	147.8162	-0.4719528	1	147.8169	-0.1829354	-1.240333E-006	0.0001177	10	0.0006766	0.1000034	0
	33	61	502.2321	147.8747	-0.4492999	1	147.8754	-0.1740859	-1.342999E-006	0.0001184	10	0.0006498	0.0954423	0
	34	63	400.1524	147.9229	-0.4182111	1	147.9235	-0.1619876	-1.341695E-006	0.0001167	10	0.0006971	0.102639	0
	35	65	315.5048	147.9755	-0.3970968	1	147.976	-0.1537546	-1.384277E-006	0.0001159	10	0.0006853	0.1011023	0
	36	66	252.0161	148.0266	-0.3809893	1	148.0271	-0.1474669	-1.393365E-006	0.0001146	10	0.0006796	0.1003987	0
	37	68	200.3205	148.0712	-0.3651527	1	148.0717	-0.1412946	-1.374664E-006	0.0001141	10	0.0006763	0.1000233	0
	38	70	158.0056	148.1213	-0.351871	1	148.1217	-0.1361093	-1.423617E-006	0.0001131	10	0.0006735	0.0996761	0
	39	71	125.558	148.1694	-0.3361849	1	148.1698	-0.1299995	-1.344739E-006	0.000116	10	0.0006694	0.099134	0
	40	73	99.734	148.2191	-0.3247299	1	148.2194	-0.1255278	-1.209709E-006	0.0001158	10	0.0006605	0.0978642	0
	41	75	79.44915	148.2638	-0.2930109	1	148.2641	-0.1132324	-1.218208E-006	0.0001137	10	0.000694	0.1028807	0
	42	77	62.91946	148.3098	-0.2963641	1	148.3101	-0.1144927	-1.167078E-006	0.0001106	10	0.0006744	0.1000097	0
	43	78	49.86702	148.3519	-0.2745908	1	148.3522	-0.1060511	-1.062919E-006	0.0001134	10	0.0006743	0.1000281	0
	44	80	38.42213	148.4018	-0.2535956	1	148.4021	-0.0979095	-9.758701E-007	0.000115	10	0.0006739	0.1000036	0
	45	82	31.25	148.4388	-0.2527208	1	148.439	-0.0975474	-9.572905E-007	0.000114	10	0.0006737	0.1000017	0
	46	84	24.93351	148.4773	-0.2390074	1	148.4775	-0.0922303	-1.015575E-006	0.0001132	10	0.0006735	0.0999989	0
	47	86	20.03205	148.5193	-0.2249903	1	148.5195	-0.0867967	-9.422549E-007	0.0001117	10	0.0006733	0.1000004	0
	48	88	15.625	148.5621	-0.2153985	1	148.5623	-0.0830725	-1.028532E-006	0.0001119	10	0.0006731	0.0999991	0
	49	90	12.46675	148.595	-0.2058306	1	148.5951	-0.0793648	-1.035998E-006	0.0001139	10	0.000673	0.1000001	0
	50	92	9.9734	148.6146	-0.1991753	1	148.6147	-0.0767885	-1.110406E-006	0.0001134	10	0.0006729	0.099999	0
	51	94	7.971939	148.6306	-0.1913109	1	148.6307	-0.0737486	-1.128792E-006	0.0001142	10	0.0006728	0.0999994	0
	52	96	6.351626	148.6427	-0.1850944	1	148.6429	-0.0713464	-1.196972E-006	0.0001137	10	0.0006728	0.1	0
	53	99	5.013369	148.6591	-0.1811752	1	148.6592	-0.069828	-1.236213E-006	0.0001112	10	0.0006727	0.1000004	0
	54	101	3.985969	148.6753	-0.1762274	1	148.6754	-0.0679136	-1.160288E-006	0.0001136	10	0.0006726	0.0999999	0
	55	104	3.175813	148.689	-0.1747091	1	148.6891	-0.0673223	-1.326386E-006	0.0001137	10	0.0006725	0.0999996	0
	56	107	2.516103	148.7106	-0.1520144	1	148.7107	-0.0585686	-1.345223E-006	0.0001153	10	0.0006478	0.096487	0
	57	111	1.99553	148.7083	-0.1510384	1	148.7084	-0.0581935	-1.390141E-006	0.0001161	10	0.0006859	0.1020731	0
	58	116	1.587906	148.7358	-0.1555709	1	148.7359	-0.0599288	-1.317461E-006	0.0001159	10	0.0006778	0.1008572	0
	59	121	1.258052	148.7641	-0.1576102	1	148.7642	-0.0607028	-1.376682E-006	0.0001159	10	0.0006745	0.100366	0
	60	127	0.997765	148.7988	-0.157043	1	148.7989	-0.0604702	-1.460423E-006	0.0001147	10	0.000673	0.1001545	0
	61	133	0.7927448	148.8265	-0.1533865	1	148.8266	-0.0590513	-1.432075E-006	0.000115	10	0.0006723	0.100068	0
	62	140	0.6290258	148.8618	-0.1529689	1	148.8619	-0.0588765	-1.504422E-006	0.000116	10	0.000672	0.1000317	0
	63	148	0.4988825	148.9038	-0.1442472	1	148.9039	-0.055504	-1.633059E-006	0.0001146	10	0.0006717	0.1000163	0
	64	158	0.3985969	148.9374	-0.1401754	1	148.9375	-0.053925	-1.643158E-006	0.0001157	10	0.0006715	0.1000086	0
