EXPLAIN
TAG	EISPOT
TITLE	LABEL	Potentiostatic EIS	Test Identifier
DATE	LABEL	2025/12/24	Date
TIME	LABEL	0:47:57	Time
NOTES	NOTES	1	Notes...
	
PSTAT	PSTAT	IFC1000-11123	Potentiostat
VDC	POTEN	0.00000E+000	T	DC Voltage (V)
FREQINIT	QUANT	1.00000E+006	Initial Freq. (Hz)
FREQFINAL	QUANT	5.00000E-001	Final Freq. (Hz)
PTSPERDEC	QUANT	1.00000E+001	Points/decade
VAC	QUANT	1.00000E+002	AC Voltage (mV rms)
AREA	QUANT	7.85000E-001	Sample Area (cm^2)
SPEED	SELECTOR	1	Optimize for:
DRIFTCOR	SELECTOR	0	Drift Correction
THD	SELECTOR	0	THD
ZGUESS	QUANT	1.00000E+002	Estimated Z (ohms)
EOC	QUANT	-8.700124E-006	Open Circuit (V)
SEQUENCER	TOGGLE	TRUE	Run as Sequence
PSTATMODEL	IQUANT	48	Pstat Model
PSTATSECTION	LABEL	IFC1000-11123	Pstat Section
PSTATSERIALNO	LABEL	11123	Pstat Serial Number
CTRLMODE	IQUANT	1	Control Mode
ELECTROMETER	IQUANT	0	RE=0 or CS=1
IESTAB	IQUANT	0	I/E Stability
CASPEED	IQUANT	3	Control Amp Speed
CONVENTION	IQUANT	1	Current Convention
ICHRANGE	IQUANT	2	Ich Range
ICHRANGEMODE	TOGGLE	F	Ich Auto Range
ICHOFFSETENABLE	TOGGLE	T	Ich Offset Enable
ICHOFFSET	QUANT	0	Ich Offset (V)
ICHFILTER	IQUANT	4	Ich Filter
VCHRANGE	IQUANT	2	Vch Range
VCHRANGEMODE	TOGGLE	F	Vch Auto Range
VCHOFFSETENABLE	TOGGLE	T	Vch Offset Enable
VCHOFFSET	QUANT	0	Vch Offset (V)
VCHFILTER	IQUANT	4	Vch Filter
IERANGELOWERLIMIT	IQUANT	4	I/E Range Lower Limit
IERANGEMODE	TOGGLE	F	I/E AutoRange
IERANGE	IQUANT	11	I/E Range
ACHSELECT	IQUANT	0	Ach Select
ACHRANGE	IQUANT	2	Ach Range
ACHOFFSETENABLE	TOGGLE	F	Ach Offset Enable
ACHOFFSET	QUANT	0	Ach Offset (V)
ACHFILTER	IQUANT	1	Ach Filter
SENSECABLEID	IQUANT	14	Sense Cable ID
PWRCABLEID	IQUANT	14	Power Cable ID
DCCALDATE	LABEL	5/23/2025	DC Calibration Date
ACCALDATE	LABEL	4/29/2023	AC Calibration Date
FRAMEWORKVERSION	LABEL	7.10.0	Framework Version
INSTRUMENTVERSION	LABEL	4.72	Instrument Version
COMMVERSION	LABEL	3.10	Communications Version
CPUPLDVERSION	LABEL	1.10	CPU PLD Version
CTRLPLDVERSION	LABEL	0.00	CTRL PLD Version
PSTATPLDVERSION	LABEL	0.00	PSTAT PLD Version
ZCURVE	TABLE
	Pt	Time	Freq	Zreal	Zimag	Zsig	Zmod	Zphz	Idc	Vdc	IERange	Imod	Vmod	Temp
	#	s	Hz	ohm	ohm	V	ohm	°	A	V	#	A	V	°C
	0	4	1000020	122.2302	-3.195775	1	122.272	-1.497688	-1.261306E-005	0.0002645	10	0.0008528	0.1001149	0
	1	5	794355.5	123.3628	-4.303977	1	123.4379	-1.998168	-1.221756E-005	0.0002774	10	0.0012569	0.1504957	0
	2	7	630996.1	124.5682	-5.24226	1	124.6784	-2.409783	-1.271712E-005	0.0002653	10	0.0011172	0.1361253	0
	3	9	501269.5	125.8487	-6.067025	1	125.9949	-2.760028	-1.296907E-005	0.0002583	10	0.0010333	0.1279032	0
	4	11	398144.5	127.1856	-6.76882	1	127.3656	-3.046409	-1.307579E-005	0.0002487	10	0.0009805	0.1231435	0
	5	13	316230.5	128.5788	-7.313265	1	128.7866	-3.255346	-1.308599E-005	0.0002413	10	0.0009325	0.1187459	0
	6	14	251191.4	130.0269	-7.734307	1	130.2568	-3.404077	-1.326375E-005	0.0002349	10	0.0008916	0.1150633	0
	7	16	199628.9	131.509	-8.017779	1	131.7532	-3.488863	-1.339325E-005	0.0002182	10	0.0008465	0.1106826	0
	8	18	158496.1	133.0289	-8.171432	1	133.2796	-3.515035	-1.344521E-005	0.0002243	10	0.0008203	0.1086574	0
	9	20	125918	134.552	-8.178104	1	134.8003	-3.478173	-1.353965E-005	0.0002178	10	0.0007872	0.1056025	0
	10	22	100019.5	136.0664	-8.024811	1	136.3028	-3.375233	-2.31679E-006	0.0000981	10	0.000744	0.1009924	0
	11	23	79511.72	137.4608	-7.760823	1	137.6797	-3.2314	-2.275198E-006	0.0000962	10	0.0007589	0.1042155	0
	12	25	63105.47	138.8205	-7.350866	1	139.015	-3.031114	-2.265082E-006	9.379792E-005	10	0.0007367	0.1022413	0
	13	27	50214.84	140.0534	-6.832481	1	140.22	-2.79295	-2.26299E-006	9.030988E-005	10	0.0007224	0.1011853	0
	14	29	39902.34	141.1407	-6.223638	1	141.2779	-2.524837	-2.179873E-006	9.418241E-005	10	0.0007132	0.1006831	0
	15	30	31699.22	142.078	-5.562846	1	142.1868	-2.242183	-2.081446E-006	9.132596E-005	10	0.0007063	0.1003754	0
	16	32	25136.72	142.855	-4.884828	1	142.9385	-1.958426	-1.915899E-006	8.699828E-005	10	0.0007013	0.1002153	0
	17	34	19980.47	143.4758	-4.2356	1	143.5383	-1.690958	-1.889345E-006	8.897309E-005	10	0.0006976	0.1001194	0
	18	36	15878.91	143.9646	-3.623955	1	144.0103	-1.441976	-1.829849E-006	8.847509E-005	10	0.0006949	0.100065	0
	19	37	12597.66	144.3382	-3.066876	1	144.3708	-1.217229	-1.781681E-006	8.892536E-005	10	0.000693	0.1000441	0
	20	39	10019.53	144.6387	-2.591285	1	144.6619	-1.026377	-1.774109E-006	8.969684E-005	10	0.0006916	0.1000379	0
	21	41	7928.241	144.8598	-2.155399	1	144.8759	-0.8524526	4.964522E-008	0.0001457	10	0.0006902	0.0999873	0
	22	43	6307.871	145.0269	-1.808057	1	145.0382	-0.7142721	2.565851E-008	0.0001466	10	0.0006897	0.1000278	0
	23	44	5034.722	145.1512	-1.52106	1	145.1592	-0.6003884	-1.679714E-006	0.0001179	10	0.0006703	0.0970586	0
	24	46	3993.056	145.2501	-1.270303	1	145.2556	-0.5010747	-1.746445E-006	0.0001181	10	0.0007016	0.1017615	0
	25	48	3144.055	145.3326	-1.061011	1	145.3365	-0.4182843	-1.8163E-006	0.0001184	10	0.0006937	0.1007394	0
	26	50	2519.531	145.393	-0.9055055	1	145.3959	-0.3568326	-1.864989E-006	0.0001161	10	0.00069	0.1002716	0
	27	51	2000.762	145.4441	-0.7734061	1	145.4462	-0.3046702	-1.842825E-006	0.0001171	10	0.0006885	0.1001103	0
	28	53	1580.669	145.4919	-0.6681887	1	145.4934	-0.2631358	-1.927327E-006	0.0001176	10	0.0006879	0.1000656	0
	29	55	1253.634	145.5347	-0.5876684	1	145.5359	-0.2313588	-1.96737E-006	0.0001165	10	0.0006873	0.1000186	0
	30	57	1000.702	145.5786	-0.524783	1	145.5795	-0.2065395	-1.981728E-006	0.0001165	10	0.0006869	0.099989	0
	31	58	790.0281	145.6237	-0.4780551	1	145.6245	-0.1880905	-1.93037E-006	0.0001181	10	0.0006866	0.0999824	0
	32	60	628.811	145.6636	-0.4399832	1	145.6643	-0.1730638	-1.897913E-006	0.0001175	10	0.0006865	0.1000001	0
	33	62	502.2321	145.7116	-0.4211648	1	145.7122	-0.1656073	-1.913273E-006	0.0001158	10	0.0006595	0.0954406	0
	34	64	400.1524	145.7489	-0.3905838	1	145.7494	-0.1535432	-1.949871E-006	0.0001156	10	0.0007075	0.1026367	0
	35	65	315.5048	145.7935	-0.3706016	1	145.794	-0.1456434	-1.856258E-006	0.0001159	10	0.0006957	0.1011311	0
	36	67	252.0161	145.8335	-0.3534533	1	145.8339	-0.1388662	-1.894882E-006	0.0001131	10	0.0006896	0.1003664	0
	37	69	200.3205	145.8826	-0.3390582	1	145.883	-0.1331657	-1.884502E-006	0.0001127	10	0.0006865	0.1000201	0
	38	70	158.0056	145.9318	-0.324506	1	145.9322	-0.1274074	-1.888732E-006	0.0001133	10	0.0006838	0.099705	0
	39	72	125.558	145.9725	-0.312071	1	145.9728	-0.1224911	-1.948586E-006	0.000118	10	0.0006792	0.0991001	0
	40	74	99.734	146.0181	-0.2987748	1	146.0184	-0.1172356	-1.87386E-006	0.0001155	10	0.0006706	0.0978908	0
	41	76	79.44915	146.0598	-0.2712512	1	146.06	-0.1064053	-1.874392E-006	0.000113	10	0.0007045	0.1028742	0
	42	77	62.91946	146.1062	-0.2703913	1	146.1064	-0.1060343	-1.904483E-006	0.0001106	10	0.0006846	0.1000106	0
	43	79	49.86702	146.1549	-0.2570621	1	146.1552	-0.1007736	-1.838878E-006	0.0001144	10	0.0006845	0.1000283	0
	44	81	38.42213	146.2004	-0.2333253	1	146.2006	-0.0914399	-1.808747E-006	0.0001118	10	0.000684	0.1000029	0
	45	83	31.25	146.232	-0.2323227	1	146.2322	-0.0910272	-1.848992E-006	0.000112	10	0.0006839	0.1000001	0
	46	84	24.93351	146.2654	-0.2222701	1	146.2656	-0.0870686	-1.815113E-006	0.0001131	10	0.0006837	0.0999989	0
	47	86	20.03205	146.2857	-0.2106515	1	146.2858	-0.0825059	-1.774848E-006	0.0001102	10	0.0006836	0.1000013	0
	48	88	15.625	146.2977	-0.2027321	1	146.2979	-0.0793976	-1.707347E-006	0.0001134	10	0.0006835	0.0999987	0
	49	90	12.46675	146.3085	-0.1962357	1	146.3086	-0.0768477	-1.623908E-006	0.0001117	10	0.0006835	0.1000002	0
	50	92	9.9734	146.3173	-0.1889617	1	146.3174	-0.0739947	-1.484452E-006	0.0001128	10	0.0006834	0.0999995	0
	51	94	7.971939	146.3163	-0.1854764	1	146.3164	-0.0726304	-1.40888E-006	0.0001126	10	0.0006834	0.0999996	0
	52	97	6.351626	146.3127	-0.1812244	1	146.3128	-0.0709671	-1.30041E-006	0.0001115	10	0.0006835	0.0999997	0
	53	99	5.013369	146.3036	-0.1798536	1	146.3037	-0.0704347	-1.366794E-006	0.0001108	10	0.0006835	0.0999999	0
	54	102	3.985969	146.2948	-0.1760742	1	146.2949	-0.0689587	-1.369065E-006	0.0001149	10	0.0006835	0.0999996	0
	55	105	3.175813	146.2746	-0.1739374	1	146.2747	-0.0681312	-1.394788E-006	0.0001145	10	0.0006836	0.1000001	0
	56	108	2.516103	146.2611	-0.1523684	1	146.2612	-0.0596882	-1.211621E-006	0.0001148	10	0.0006587	0.0964872	0
	57	112	1.99553	146.1939	-0.1531658	1	146.194	-0.0600281	-1.25972E-006	0.0001162	10	0.0006977	0.102074	0
	58	116	1.587906	146.1479	-0.155701	1	146.148	-0.0610409	-1.052464E-006	0.000115	10	0.0006898	0.1008559	0
	59	121	1.258052	146.0968	-0.1586396	1	146.0968	-0.0622148	-9.396485E-007	0.0001148	10	0.0006868	0.100366	0
	60	127	0.997765	146.0474	-0.1572186	1	146.0475	-0.0616783	-9.358614E-007	0.0001162	10	0.0006857	0.1001554	0
	61	133	0.7927448	146.023	-0.157556	1	146.0231	-0.061821	-1.106303E-006	0.0001138	10	0.0006852	0.1000677	0
	62	140	0.6290258	146.0363	-0.1527313	1	146.0364	-0.0599224	-1.17461E-006	0.0001151	10	0.000685	0.100032	0
	63	149	0.4988825	146.0758	-0.1478843	1	146.0759	-0.0580051	-1.210029E-006	0.0001145	10	0.0006847	0.1000155	0
	64	159	0.3985969	146.1113	-0.1428584	1	146.1114	-0.0560202	-9.097025E-007	0.000114	10	0.0006845	0.1000088	0
