EXPLAIN
TAG	EISPOT
TITLE	LABEL	Potentiostatic EIS	Test Identifier
DATE	LABEL	2025/12/23	Date
TIME	LABEL	21:01:10	Time
NOTES	NOTES	1	Notes...
	
PSTAT	PSTAT	IFC1000-11123	Potentiostat
VDC	POTEN	0.00000E+000	T	DC Voltage (V)
FREQINIT	QUANT	1.00000E+006	Initial Freq. (Hz)
FREQFINAL	QUANT	5.00000E-001	Final Freq. (Hz)
PTSPERDEC	QUANT	1.00000E+001	Points/decade
VAC	QUANT	1.00000E+002	AC Voltage (mV rms)
AREA	QUANT	7.85000E-001	Sample Area (cm^2)
SPEED	SELECTOR	1	Optimize for:
DRIFTCOR	SELECTOR	0	Drift Correction
THD	SELECTOR	0	THD
ZGUESS	QUANT	1.00000E+002	Estimated Z (ohms)
EOC	QUANT	-1.147638E-005	Open Circuit (V)
SEQUENCER	TOGGLE	TRUE	Run as Sequence
PSTATMODEL	IQUANT	48	Pstat Model
PSTATSECTION	LABEL	IFC1000-11123	Pstat Section
PSTATSERIALNO	LABEL	11123	Pstat Serial Number
CTRLMODE	IQUANT	1	Control Mode
ELECTROMETER	IQUANT	0	RE=0 or CS=1
IESTAB	IQUANT	0	I/E Stability
CASPEED	IQUANT	3	Control Amp Speed
CONVENTION	IQUANT	1	Current Convention
ICHRANGE	IQUANT	2	Ich Range
ICHRANGEMODE	TOGGLE	F	Ich Auto Range
ICHOFFSETENABLE	TOGGLE	T	Ich Offset Enable
ICHOFFSET	QUANT	0	Ich Offset (V)
ICHFILTER	IQUANT	4	Ich Filter
VCHRANGE	IQUANT	2	Vch Range
VCHRANGEMODE	TOGGLE	F	Vch Auto Range
VCHOFFSETENABLE	TOGGLE	T	Vch Offset Enable
VCHOFFSET	QUANT	0	Vch Offset (V)
VCHFILTER	IQUANT	4	Vch Filter
IERANGELOWERLIMIT	IQUANT	4	I/E Range Lower Limit
IERANGEMODE	TOGGLE	F	I/E AutoRange
IERANGE	IQUANT	11	I/E Range
ACHSELECT	IQUANT	0	Ach Select
ACHRANGE	IQUANT	2	Ach Range
ACHOFFSETENABLE	TOGGLE	F	Ach Offset Enable
ACHOFFSET	QUANT	0	Ach Offset (V)
ACHFILTER	IQUANT	1	Ach Filter
SENSECABLEID	IQUANT	14	Sense Cable ID
PWRCABLEID	IQUANT	14	Power Cable ID
DCCALDATE	LABEL	5/23/2025	DC Calibration Date
ACCALDATE	LABEL	4/29/2023	AC Calibration Date
FRAMEWORKVERSION	LABEL	7.10.0	Framework Version
INSTRUMENTVERSION	LABEL	4.72	Instrument Version
COMMVERSION	LABEL	3.10	Communications Version
CPUPLDVERSION	LABEL	1.10	CPU PLD Version
CTRLPLDVERSION	LABEL	0.00	CTRL PLD Version
PSTATPLDVERSION	LABEL	0.00	PSTAT PLD Version
ZCURVE	TABLE
	Pt	Time	Freq	Zreal	Zimag	Zsig	Zmod	Zphz	Idc	Vdc	IERange	Imod	Vmod	Temp
	#	s	Hz	ohm	ohm	V	ohm	°	A	V	#	A	V	°C
	0	4	1000020	121.5309	-2.588365	1	121.5585	-1.220101	-1.213473E-005	0.0002659	10	0.0008575	0.1000773	0
	1	5	794355.5	122.555	-3.729212	1	122.6118	-1.742909	-1.219812E-005	0.0002729	10	0.0012653	0.150484	0
	2	7	630996.1	123.6868	-4.72125	1	123.7768	-2.185977	-1.25388E-005	0.0002694	10	0.001126	0.1362081	0
	3	9	501269.5	124.9253	-5.616435	1	125.0515	-2.574189	-1.285512E-005	0.0002624	10	0.0010424	0.1280688	0
	4	11	398144.5	126.2066	-6.312583	1	126.3644	-2.863425	-1.287169E-005	0.0002495	10	0.0009875	0.1230495	0
	5	13	316230.5	127.5543	-6.870815	1	127.7392	-3.083303	-1.317815E-005	0.0002389	10	0.0009396	0.118674	0
	6	14	251191.4	128.9762	-7.314133	1	129.1835	-3.245719	-1.326537E-005	0.0002355	10	0.0008987	0.1150283	0
	7	16	199628.9	130.4572	-7.592503	1	130.678	-3.33081	-1.337597E-005	0.0002091	10	0.0008571	0.1111607	0
	8	18	158496.1	131.9409	-7.705615	1	132.1658	-3.342391	-1.330766E-005	0.0002207	10	0.0008243	0.1082734	0
	9	20	125918	133.4204	-7.668908	1	133.6406	-3.2897	-1.333253E-005	0.0002174	10	0.0007942	0.1056255	0
	10	22	100019.5	134.8772	-7.457747	1	135.0832	-3.164825	-2.124098E-006	0.000099	10	0.0007505	0.100965	0
	11	23	79511.72	136.1886	-7.142348	1	136.3758	-3.0021	-2.192103E-006	0.0000961	10	0.0007664	0.1042508	0
	12	25	63105.47	137.4396	-6.68865	1	137.6022	-2.786164	-2.207674E-006	9.241264E-005	10	0.0007444	0.102251	0
	13	27	50214.84	138.5401	-6.151488	1	138.6767	-2.542389	-2.25234E-006	9.04979E-005	10	0.0007306	0.1011987	0
	14	29	39902.34	139.5086	-5.539752	1	139.6186	-2.273965	-2.200919E-006	9.063038E-005	10	0.0007215	0.1006689	0
	15	31	31699.22	140.3131	-4.906737	1	140.3989	-2.002812	-2.235205E-006	8.901849E-005	10	0.0007152	0.1003629	0
	16	32	25136.72	140.9796	-4.266725	1	141.0441	-1.733519	-2.290192E-006	9.068463E-005	10	0.0007107	0.1002044	0
	17	34	19980.47	141.4992	-3.661873	1	141.5466	-1.482433	-2.263574E-006	9.075238E-005	10	0.0007076	0.1001391	0
	18	36	15878.91	141.9021	-3.116406	1	141.9363	-1.258109	-2.225593E-006	8.791965E-005	10	0.000705	0.1000553	0
	19	38	12597.66	142.2165	-2.626782	1	142.2408	-1.05815	-2.277867E-006	8.687261E-005	10	0.0007033	0.1000375	0
	20	39	10019.53	142.4487	-2.201833	1	142.4657	-0.885552	-2.19899E-006	8.840655E-005	10	0.0007022	0.1000293	0
	21	41	7928.241	142.6364	-1.835431	1	142.6482	-0.7372359	-3.675741E-007	0.0001423	10	0.0007011	0.1000136	0
	22	43	6307.871	142.7786	-1.52925	1	142.7868	-0.6136512	-4.19307E-007	0.000142	10	0.0007005	0.1000211	0
	23	45	5034.722	142.8862	-1.286044	1	142.892	-0.5156754	-1.917061E-006	0.0001187	10	0.0006809	0.0970534	0
	24	47	3993.056	142.9633	-1.075665	1	142.9674	-0.4310891	-1.981492E-006	0.0001178	10	0.0007128	0.1017555	0
	25	48	3144.055	143.033	-0.898172	1	143.0359	-0.3597825	-1.972927E-006	0.0001162	10	0.0007051	0.1007651	0
	26	50	2519.531	143.087	-0.7661769	1	143.0891	-0.3067943	-1.931602E-006	0.0001152	10	0.0007011	0.1002649	0
	27	52	2000.762	143.1405	-0.6545519	1	143.142	-0.262	-1.95819E-006	0.0001162	10	0.0006996	0.1001055	0
	28	54	1580.669	143.1884	-0.5630454	1	143.1895	-0.2252973	-1.909335E-006	0.0001178	10	0.0006989	0.1000587	0
	29	55	1253.634	143.2315	-0.4930451	1	143.2324	-0.1972282	-1.950975E-006	0.0001168	10	0.0006983	0.1000134	0
	30	57	1000.702	143.2691	-0.4378889	1	143.2698	-0.1751187	-1.957443E-006	0.0001181	10	0.0006981	0.1000128	0
	31	59	790.0281	143.3045	-0.391607	1	143.3051	-0.1565713	-1.918421E-006	0.0001186	10	0.0006977	0.0999757	0
	32	61	628.811	143.3403	-0.3584539	1	143.3407	-0.1432804	-1.907714E-006	0.0001175	10	0.0006976	0.0999942	0
	33	62	502.2321	143.3881	-0.3335097	1	143.3884	-0.1332654	-1.955514E-006	0.0001139	10	0.0006701	0.0954359	0
	34	64	400.1524	143.4181	-0.3056442	1	143.4185	-0.1221052	-1.877759E-006	0.0001158	10	0.0007189	0.1026279	0
	35	66	315.5048	143.4517	-0.2813449	1	143.452	-0.1123713	-1.842234E-006	0.0001159	10	0.0007073	0.1011548	0
	36	67	252.0161	143.4843	-0.2649013	1	143.4845	-0.1057796	-1.873402E-006	0.0001114	10	0.0007008	0.1003549	0
	37	69	200.3205	143.5142	-0.2515749	1	143.5145	-0.1004372	-1.943904E-006	0.0001119	10	0.0006979	0.1000412	0
	38	71	158.0056	143.5472	-0.2363496	1	143.5474	-0.094337	-1.972067E-006	0.0001128	10	0.0006948	0.0996618	0
	39	73	125.558	143.5777	-0.2256272	1	143.5779	-0.0900382	-1.956882E-006	0.0001152	10	0.0006907	0.0991151	0
	40	74	99.734	143.6086	-0.2154093	1	143.6087	-0.0859422	-1.919609E-006	0.000113	10	0.0006817	0.0978675	0
	41	76	79.44915	143.6419	-0.1937711	1	143.642	-0.0772913	-2.012309E-006	0.0001119	10	0.0007166	0.1029179	0
	42	78	62.91946	143.662	-0.199758	1	143.6621	-0.0796682	-2.037427E-006	0.0001118	10	0.0006962	0.1000121	0
	43	80	49.86702	143.6864	-0.1888027	1	143.6866	-0.0752861	-2.027072E-006	0.0001116	10	0.0006962	0.100028	0
	44	81	38.42213	143.7124	-0.1755745	1	143.7126	-0.0699986	-2.020008E-006	0.0001125	10	0.0006959	0.100004	0
	45	83	31.25	143.7317	-0.1829986	1	143.7318	-0.0729487	-2.003221E-006	0.0001107	10	0.0006958	0.0999998	0
	46	85	24.93351	143.7525	-0.1784667	1	143.7526	-0.0711319	-2.049894E-006	0.0001096	10	0.0006956	0.0999984	0
	47	87	20.03205	143.7687	-0.1724844	1	143.7688	-0.0687397	-2.056124E-006	0.0001084	10	0.0006956	0.1000007	0
	48	89	15.625	143.7886	-0.1726931	1	143.7887	-0.0688134	-2.088521E-006	0.0001107	10	0.0006955	0.0999997	0
	49	91	12.46675	143.8068	-0.1720854	1	143.8069	-0.0685626	-2.066877E-006	0.0001117	10	0.0006954	0.0999998	0
	50	93	9.9734	143.8196	-0.1710562	1	143.8197	-0.0681465	-2.107973E-006	0.0001107	10	0.0006953	0.0999994	0
	51	95	7.971939	143.8285	-0.1732301	1	143.8286	-0.0690082	-2.183106E-006	0.0001105	10	0.0006953	0.0999998	0
	52	97	6.351626	143.8396	-0.1724492	1	143.8397	-0.0686919	-2.148073E-006	0.000112	10	0.0006952	0.0999997	0
	53	100	5.013369	143.8457	-0.1754526	1	143.8458	-0.0698852	-2.090236E-006	0.0001077	10	0.0006952	0.1000002	0
	54	103	3.985969	143.8473	-0.1765306	1	143.8474	-0.0703138	-2.065646E-006	0.000112	10	0.0006952	0.0999995	0
	55	106	3.175813	143.8397	-0.1771261	1	143.8398	-0.0705548	-1.92746E-006	0.0001129	10	0.0006952	0.0999994	0
	56	109	2.516103	143.8383	-0.1637877	1	143.8384	-0.0652423	-1.814759E-006	0.0001142	10	0.0006698	0.0964924	0
	57	113	1.99553	143.823	-0.1613063	1	143.8231	-0.0642607	-1.791394E-006	0.0001134	10	0.0007092	0.1020731	0
	58	117	1.587906	143.8382	-0.1647633	1	143.8383	-0.065631	-1.712257E-006	0.0001146	10	0.0007009	0.1008554	0
	59	122	1.258052	143.8492	-0.1677626	1	143.8493	-0.0668205	-1.692697E-006	0.0001138	10	0.0006976	0.1003665	0
	60	128	0.997765	143.8663	-0.1648555	1	143.8664	-0.0656548	-1.673837E-006	0.0001139	10	0.0006961	0.1001543	0
	61	134	0.7927448	143.8728	-0.1650487	1	143.8729	-0.0657288	-1.660617E-006	0.0001143	10	0.0006955	0.1000676	0
	62	141	0.6290258	143.8901	-0.1608579	1	143.8902	-0.0640522	-1.644731E-006	0.0001145	10	0.0006952	0.1000309	0
	63	150	0.4988825	143.8687	-0.153716	1	143.8688	-0.0612175	-1.653244E-006	0.0001147	10	0.0006952	0.1000158	0
	64	160	0.3985969	143.8113	-0.1482133	1	143.8114	-0.0590496	-1.560198E-006	0.0001151	10	0.0006954	0.1000082	0
