EXPLAIN
TAG	EISPOT
TITLE	LABEL	Potentiostatic EIS	Test Identifier
DATE	LABEL	2025/12/23	Date
TIME	LABEL	22:16:47	Time
NOTES	NOTES	1	Notes...
	
PSTAT	PSTAT	IFC1000-11123	Potentiostat
VDC	POTEN	0.00000E+000	T	DC Voltage (V)
FREQINIT	QUANT	1.00000E+006	Initial Freq. (Hz)
FREQFINAL	QUANT	5.00000E-001	Final Freq. (Hz)
PTSPERDEC	QUANT	1.00000E+001	Points/decade
VAC	QUANT	1.00000E+002	AC Voltage (mV rms)
AREA	QUANT	7.85000E-001	Sample Area (cm^2)
SPEED	SELECTOR	1	Optimize for:
DRIFTCOR	SELECTOR	0	Drift Correction
THD	SELECTOR	0	THD
ZGUESS	QUANT	1.00000E+002	Estimated Z (ohms)
EOC	QUANT	-8.070288E-006	Open Circuit (V)
SEQUENCER	TOGGLE	TRUE	Run as Sequence
PSTATMODEL	IQUANT	48	Pstat Model
PSTATSECTION	LABEL	IFC1000-11123	Pstat Section
PSTATSERIALNO	LABEL	11123	Pstat Serial Number
CTRLMODE	IQUANT	1	Control Mode
ELECTROMETER	IQUANT	0	RE=0 or CS=1
IESTAB	IQUANT	0	I/E Stability
CASPEED	IQUANT	3	Control Amp Speed
CONVENTION	IQUANT	1	Current Convention
ICHRANGE	IQUANT	2	Ich Range
ICHRANGEMODE	TOGGLE	F	Ich Auto Range
ICHOFFSETENABLE	TOGGLE	T	Ich Offset Enable
ICHOFFSET	QUANT	0	Ich Offset (V)
ICHFILTER	IQUANT	4	Ich Filter
VCHRANGE	IQUANT	2	Vch Range
VCHRANGEMODE	TOGGLE	F	Vch Auto Range
VCHOFFSETENABLE	TOGGLE	T	Vch Offset Enable
VCHOFFSET	QUANT	0	Vch Offset (V)
VCHFILTER	IQUANT	4	Vch Filter
IERANGELOWERLIMIT	IQUANT	4	I/E Range Lower Limit
IERANGEMODE	TOGGLE	F	I/E AutoRange
IERANGE	IQUANT	11	I/E Range
ACHSELECT	IQUANT	0	Ach Select
ACHRANGE	IQUANT	2	Ach Range
ACHOFFSETENABLE	TOGGLE	F	Ach Offset Enable
ACHOFFSET	QUANT	0	Ach Offset (V)
ACHFILTER	IQUANT	1	Ach Filter
SENSECABLEID	IQUANT	14	Sense Cable ID
PWRCABLEID	IQUANT	14	Power Cable ID
DCCALDATE	LABEL	5/23/2025	DC Calibration Date
ACCALDATE	LABEL	4/29/2023	AC Calibration Date
FRAMEWORKVERSION	LABEL	7.10.0	Framework Version
INSTRUMENTVERSION	LABEL	4.72	Instrument Version
COMMVERSION	LABEL	3.10	Communications Version
CPUPLDVERSION	LABEL	1.10	CPU PLD Version
CTRLPLDVERSION	LABEL	0.00	CTRL PLD Version
PSTATPLDVERSION	LABEL	0.00	PSTAT PLD Version
ZCURVE	TABLE
	Pt	Time	Freq	Zreal	Zimag	Zsig	Zmod	Zphz	Idc	Vdc	IERange	Imod	Vmod	Temp
	#	s	Hz	ohm	ohm	V	ohm	°	A	V	#	A	V	°C
	0	4	1000020	121.664	-2.806782	1	121.6964	-1.321576	-1.263405E-005	0.0002642	10	0.0008569	0.1001283	0
	1	5	794355.5	122.7377	-3.934076	1	122.8008	-1.835856	-1.249679E-005	0.0002681	10	0.001264	0.1505579	0
	2	7	630996.1	123.9067	-4.904369	1	124.0037	-2.26665	-1.290625E-005	0.0002694	10	0.0011225	0.1360255	0
	3	9	501269.5	125.1497	-5.749307	1	125.2817	-2.630286	-1.307228E-005	0.000248	10	0.0010408	0.1281076	0
	4	11	398144.5	126.466	-6.446723	1	126.6302	-2.91818	-1.329491E-005	0.0002428	10	0.0009856	0.1230762	0
	5	13	316230.5	127.8465	-7.017552	1	128.0389	-3.141839	-1.345311E-005	0.0002361	10	0.0009376	0.1187014	0
	6	14	251191.4	129.2517	-7.44915	1	129.4662	-3.298474	-1.336454E-005	0.0002272	10	0.0008968	0.1150405	0
	7	16	199628.9	130.7004	-7.727116	1	130.9286	-3.383435	-1.352624E-005	0.0002102	10	0.0008556	0.1111741	0
	8	18	158496.1	132.2026	-7.857532	1	132.4359	-3.401405	-1.349314E-005	0.0002235	10	0.000822	0.1082035	0
	9	20	125918	133.6856	-7.835389	1	133.915	-3.354301	-1.362563E-005	0.000217	10	0.0007924	0.1056075	0
	10	21	100019.5	135.1393	-7.652291	1	135.3558	-3.240923	-2.57079E-006	0.0000972	10	0.0007491	0.1009784	0
	11	23	79511.72	136.4729	-7.364057	1	136.6715	-3.088675	-2.535684E-006	0.000096	10	0.0007646	0.1042313	0
	12	25	63105.47	137.7618	-6.926795	1	137.9358	-2.878463	-2.465032E-006	9.398465E-005	10	0.0007426	0.1022619	0
	13	27	50214.84	138.9062	-6.398679	1	139.0535	-2.63745	-2.42272E-006	9.286666E-005	10	0.0007284	0.1011764	0
	14	29	39902.34	139.9113	-5.796387	1	140.0313	-2.372351	-2.444781E-006	9.14741E-005	10	0.0007195	0.1006758	0
	15	30	31699.22	140.7652	-5.148226	1	140.8593	-2.094554	-2.452066E-006	9.104538E-005	10	0.0007129	0.1003689	0
	16	32	25136.72	141.4708	-4.493762	1	141.5421	-1.819366	-2.499919E-006	9.071431E-005	10	0.0007082	0.1002104	0
	17	34	19980.47	142.0211	-3.882201	1	142.0742	-1.565812	-2.332197E-006	9.27489E-005	10	0.000705	0.1001461	0
	18	36	15878.91	142.4417	-3.30426	1	142.48	-1.328868	-2.29147E-006	8.840702E-005	10	0.0007024	0.1000601	0
	19	37	12597.66	142.7658	-2.793397	1	142.7932	-1.120922	-2.287702E-006	8.812302E-005	10	0.0007007	0.1000418	0
	20	39	10019.53	143.0136	-2.343683	1	143.0328	-0.9388692	-2.320227E-006	9.109708E-005	10	0.0006994	0.1000333	0
	21	41	7928.241	143.2033	-1.95382	1	143.2166	-0.7816768	-4.948447E-007	0.0001449	10	0.0006984	0.1000153	0
	22	43	6307.871	143.3357	-1.630368	1	143.345	-0.6516812	-5.438601E-007	0.0001457	10	0.0006976	0.0999923	0
	23	44	5034.722	143.4241	-1.3731	1	143.4307	-0.5485158	-2.072093E-006	0.000119	10	0.0006784	0.0970559	0
	24	46	3993.056	143.4978	-1.148815	1	143.5023	-0.4586889	-2.088287E-006	0.0001194	10	0.0007104	0.1017897	0
	25	48	3144.055	143.5615	-0.960521	1	143.5647	-0.3833409	-2.062605E-006	0.0001189	10	0.0007023	0.100738	0
	26	50	2519.531	143.6112	-0.8182648	1	143.6135	-0.3264552	-2.048655E-006	0.0001178	10	0.0006985	0.1002674	0
	27	51	2000.762	143.6588	-0.7020662	1	143.6605	-0.2800045	-1.990936E-006	0.0001181	10	0.0006971	0.1001082	0
	28	53	1580.669	143.6979	-0.606981	1	143.6992	-0.2420163	-1.889534E-006	0.0001189	10	0.0006965	0.100063	0
	29	55	1253.634	143.7396	-0.5357023	1	143.7406	-0.2135344	-1.859357E-006	0.0001186	10	0.0006959	0.100015	0
	30	57	1000.702	143.7781	-0.4801573	1	143.7789	-0.1913427	-1.851366E-006	0.0001211	10	0.0006955	0.099985	0
	31	58	790.0281	143.8247	-0.4336533	1	143.8253	-0.172755	-1.920568E-006	0.0001198	10	0.0006954	0.1000098	0
	32	60	628.811	143.8662	-0.4019777	1	143.8668	-0.1600901	-1.863444E-006	0.000119	10	0.0006949	0.0999666	0
	33	62	502.2321	143.9242	-0.3798509	1	143.9247	-0.1512171	-1.918515E-006	0.0001161	10	0.0006678	0.0954687	0
	34	63	400.1524	143.9648	-0.3524178	1	143.9652	-0.1402566	-1.97097E-006	0.0001171	10	0.0007162	0.1026304	0
	35	65	315.5048	144.0118	-0.3333396	1	144.0122	-0.1326205	-1.977322E-006	0.0001141	10	0.0007043	0.1011248	0
	36	67	252.0161	144.049	-0.318023	1	144.0493	-0.1264941	-2.051102E-006	0.0001133	10	0.0006981	0.1003598	0
	37	69	200.3205	144.0875	-0.3015614	1	144.0878	-0.1199144	-1.982342E-006	0.0001147	10	0.0006952	0.1000444	0
	38	70	158.0056	144.1258	-0.2906477	1	144.1261	-0.1155439	-2.008224E-006	0.0001137	10	0.0006921	0.0996675	0
	39	72	125.558	144.1644	-0.2773584	1	144.1646	-0.1102314	-2.026919E-006	0.0001166	10	0.0006879	0.0991233	0
	40	74	99.734	144.2036	-0.2678404	1	144.2039	-0.1064197	-2.026577E-006	0.0001128	10	0.0006788	0.0978496	0
	41	75	79.44915	144.2346	-0.242023	1	144.2348	-0.0961412	-2.104685E-006	0.0001154	10	0.0007137	0.1029156	0
	42	77	62.91946	144.2687	-0.2397039	1	144.2689	-0.0951974	-2.09244E-006	0.0001115	10	0.0006933	0.1000097	0
	43	79	49.86702	144.2928	-0.2270892	1	144.293	-0.0901725	-2.002299E-006	0.0001147	10	0.0006933	0.1000288	0
	44	81	38.42213	144.3331	-0.2101264	1	144.3332	-0.0834137	-2.001515E-006	0.000113	10	0.0006929	0.1000032	0
	45	82	31.25	144.3621	-0.2129926	1	144.3622	-0.0845344	-1.995669E-006	0.0001133	10	0.0006927	0.1000003	0
	46	84	24.93351	144.3879	-0.2039394	1	144.3881	-0.0809268	-2.026396E-006	0.0001139	10	0.0006926	0.0999986	0
	47	86	20.03205	144.4122	-0.1935806	1	144.4123	-0.0768034	-2.142803E-006	0.0001126	10	0.0006925	0.1000012	0
	48	88	15.625	144.4397	-0.1894454	1	144.4399	-0.0751484	-2.109688E-006	0.0001144	10	0.0006923	0.0999992	0
	49	90	12.46675	144.4622	-0.1852172	1	144.4623	-0.0734597	-2.124041E-006	0.000113	10	0.0006922	0.0999997	0
	50	92	9.9734	144.4806	-0.1804021	1	144.4807	-0.0715409	-2.105413E-006	0.0001143	10	0.0006921	0.1000001	0
	51	94	7.971939	144.4905	-0.1803298	1	144.4906	-0.0715073	-2.027781E-006	0.0001147	10	0.0006921	0.0999996	0
	52	97	6.351626	144.4931	-0.1766871	1	144.4932	-0.0700616	-2.03143E-006	0.0001147	10	0.0006921	0.0999994	0
	53	99	5.013369	144.5021	-0.1742411	1	144.5022	-0.0690874	-2.013834E-006	0.0001115	10	0.000692	0.1000001	0
	54	102	3.985969	144.5092	-0.1763004	1	144.5093	-0.0699005	-2.049865E-006	0.0001151	10	0.000692	0.0999999	0
	55	105	3.175813	144.5205	-0.1755282	1	144.5206	-0.0695889	-1.99353E-006	0.0001147	10	0.0006919	0.0999999	0
	56	108	2.516103	144.5387	-0.156872	1	144.5388	-0.0621847	-1.919053E-006	0.0001162	10	0.0006665	0.0964902	0
	57	112	1.99553	144.5281	-0.15821	1	144.5282	-0.0627197	-1.946443E-006	0.0001153	10	0.0007057	0.1020729	0
	58	116	1.587906	144.5325	-0.163225	1	144.5326	-0.0647058	-1.839205E-006	0.0001156	10	0.0006975	0.1008556	0
	59	121	1.258052	144.5489	-0.1643375	1	144.549	-0.0651395	-1.841435E-006	0.0001159	10	0.0006942	0.1003667	0
	60	127	0.997765	144.5688	-0.1634997	1	144.5689	-0.0647985	-1.929714E-006	0.000116	10	0.0006927	0.1001548	0
	61	133	0.7927448	144.5731	-0.159657	1	144.5732	-0.0632737	-1.814618E-006	0.0001162	10	0.0006921	0.1000672	0
	62	140	0.6290258	144.5382	-0.154857	1	144.5382	-0.0613862	-1.695947E-006	0.0001168	10	0.0006921	0.1000319	0
	63	149	0.4988825	144.4915	-0.1510303	1	144.4915	-0.0598886	-1.527665E-006	0.0001164	10	0.0006922	0.1000156	0
	64	159	0.3985969	144.4421	-0.1457402	1	144.4421	-0.0578107	-1.679131E-006	0.0001172	10	0.0006924	0.100008	0
