EXPLAIN
TAG	EISPOT
TITLE	LABEL	Potentiostatic EIS	Test Identifier
DATE	LABEL	2025/12/24	Date
TIME	LABEL	0:38:30	Time
NOTES	NOTES	1	Notes...
	
PSTAT	PSTAT	IFC1000-11123	Potentiostat
VDC	POTEN	0.00000E+000	T	DC Voltage (V)
FREQINIT	QUANT	1.00000E+006	Initial Freq. (Hz)
FREQFINAL	QUANT	5.00000E-001	Final Freq. (Hz)
PTSPERDEC	QUANT	1.00000E+001	Points/decade
VAC	QUANT	1.00000E+002	AC Voltage (mV rms)
AREA	QUANT	7.85000E-001	Sample Area (cm^2)
SPEED	SELECTOR	1	Optimize for:
DRIFTCOR	SELECTOR	0	Drift Correction
THD	SELECTOR	0	THD
ZGUESS	QUANT	1.00000E+002	Estimated Z (ohms)
EOC	QUANT	-7.959739E-006	Open Circuit (V)
SEQUENCER	TOGGLE	TRUE	Run as Sequence
PSTATMODEL	IQUANT	48	Pstat Model
PSTATSECTION	LABEL	IFC1000-11123	Pstat Section
PSTATSERIALNO	LABEL	11123	Pstat Serial Number
CTRLMODE	IQUANT	1	Control Mode
ELECTROMETER	IQUANT	0	RE=0 or CS=1
IESTAB	IQUANT	0	I/E Stability
CASPEED	IQUANT	3	Control Amp Speed
CONVENTION	IQUANT	1	Current Convention
ICHRANGE	IQUANT	2	Ich Range
ICHRANGEMODE	TOGGLE	F	Ich Auto Range
ICHOFFSETENABLE	TOGGLE	T	Ich Offset Enable
ICHOFFSET	QUANT	0	Ich Offset (V)
ICHFILTER	IQUANT	4	Ich Filter
VCHRANGE	IQUANT	2	Vch Range
VCHRANGEMODE	TOGGLE	F	Vch Auto Range
VCHOFFSETENABLE	TOGGLE	T	Vch Offset Enable
VCHOFFSET	QUANT	0	Vch Offset (V)
VCHFILTER	IQUANT	4	Vch Filter
IERANGELOWERLIMIT	IQUANT	4	I/E Range Lower Limit
IERANGEMODE	TOGGLE	F	I/E AutoRange
IERANGE	IQUANT	11	I/E Range
ACHSELECT	IQUANT	0	Ach Select
ACHRANGE	IQUANT	2	Ach Range
ACHOFFSETENABLE	TOGGLE	F	Ach Offset Enable
ACHOFFSET	QUANT	0	Ach Offset (V)
ACHFILTER	IQUANT	1	Ach Filter
SENSECABLEID	IQUANT	14	Sense Cable ID
PWRCABLEID	IQUANT	14	Power Cable ID
DCCALDATE	LABEL	5/23/2025	DC Calibration Date
ACCALDATE	LABEL	4/29/2023	AC Calibration Date
FRAMEWORKVERSION	LABEL	7.10.0	Framework Version
INSTRUMENTVERSION	LABEL	4.72	Instrument Version
COMMVERSION	LABEL	3.10	Communications Version
CPUPLDVERSION	LABEL	1.10	CPU PLD Version
CTRLPLDVERSION	LABEL	0.00	CTRL PLD Version
PSTATPLDVERSION	LABEL	0.00	PSTAT PLD Version
ZCURVE	TABLE
	Pt	Time	Freq	Zreal	Zimag	Zsig	Zmod	Zphz	Idc	Vdc	IERange	Imod	Vmod	Temp
	#	s	Hz	ohm	ohm	V	ohm	°	A	V	#	A	V	°C
	0	4	1000020	121.896	-3.120905	1	121.936	-1.466624	-1.215802E-005	0.000259	10	0.0008535	0.0999273	0
	1	6	794355.5	123.0309	-4.239755	1	123.1039	-1.973683	-1.193752E-005	0.000263	10	0.0012616	0.150654	0
	2	7	630996.1	124.234	-5.191758	1	124.3425	-2.393006	-1.233511E-005	0.0002699	10	0.0011199	0.1360847	0
	3	9	501269.5	125.5147	-6.018947	1	125.659	-2.745465	-1.256274E-005	0.0002596	10	0.0010381	0.1281565	0
	4	11	398144.5	126.8447	-6.695958	1	127.0213	-3.02176	-1.257459E-005	0.000249	10	0.0009801	0.1227635	0
	5	13	316230.5	128.2325	-7.258885	1	128.4378	-3.239897	-1.274798E-005	0.0002408	10	0.0009379	0.1191053	0
	6	15	251191.4	129.6677	-7.683723	1	129.8952	-3.391212	-1.26794E-005	0.0002323	10	0.0008904	0.1145878	0
	7	16	199628.9	131.1422	-7.968504	1	131.384	-3.47715	-1.294985E-005	0.0002105	10	0.0008526	0.1111716	0
	8	18	158496.1	132.6585	-8.119246	1	132.9068	-3.502368	-1.289482E-005	0.0002255	10	0.000821	0.1084551	0
	9	20	125918	134.1727	-8.121597	1	134.4182	-3.463941	-1.297068E-005	0.0002173	10	0.0007895	0.1056219	0
	10	22	100019.5	135.6838	-7.972038	1	135.9178	-3.362522	-1.838664E-006	0.0000986	10	0.000746	0.1009866	0
	11	23	79511.72	137.078	-7.702661	1	137.2943	-3.21617	-1.836283E-006	0.0000952	10	0.000761	0.1042109	0
	12	25	63105.47	138.4323	-7.290567	1	138.6242	-3.014709	-1.937065E-006	9.291439E-005	10	0.0007388	0.1022403	0
	13	27	50214.84	139.6473	-6.770919	1	139.8114	-2.775861	-1.897326E-006	9.248339E-005	10	0.0007248	0.1012168	0
	14	29	39902.34	140.7262	-6.165329	1	140.8612	-2.50857	-2.003551E-006	9.249296E-005	10	0.0007151	0.1006512	0
	15	31	31699.22	141.6522	-5.505315	1	141.7591	-2.225682	-1.979912E-006	9.218795E-005	10	0.0007084	0.1003747	0
	16	32	25136.72	142.4339	-4.836797	1	142.516	-1.944913	-1.957637E-006	9.137872E-005	10	0.0007034	0.100217	0
	17	34	19980.47	143.0405	-4.181223	1	143.1016	-1.674338	-1.896031E-006	8.956948E-005	10	0.0006998	0.1001191	0
	18	36	15878.91	143.5226	-3.586031	1	143.5674	-1.431285	-1.94527E-006	8.836764E-005	10	0.0006971	0.1000652	0
	19	38	12597.66	143.8971	-3.035186	1	143.9291	-1.208346	-1.929922E-006	8.913991E-005	10	0.0006951	0.100043	0
	20	39	10019.53	144.1799	-2.55631	1	144.2026	-1.015748	-1.965007E-006	8.999044E-005	10	0.0006938	0.1000363	0
	21	41	7928.241	144.3995	-2.132614	1	144.4153	-0.8461307	-1.654407E-007	0.0001425	10	0.0006926	0.1000184	0
	22	43	6307.871	144.5683	-1.781671	1	144.5793	-0.7060819	-1.320664E-007	0.0001454	10	0.0006916	0.0999953	0
	23	45	5034.722	144.6955	-1.503688	1	144.7033	-0.5954013	-1.739792E-006	0.0001185	10	0.0006724	0.0970573	0
	24	46	3993.056	144.797	-1.256998	1	144.8024	-0.4973783	-1.613294E-006	0.0001173	10	0.0007038	0.101761	0
	25	48	3144.055	144.8893	-1.051177	1	144.8931	-0.4156757	-1.545038E-006	0.0001163	10	0.0006959	0.1007402	0
	26	50	2519.531	144.9569	-0.8957375	1	144.9596	-0.3540455	-1.527247E-006	0.0001169	10	0.0006921	0.1002706	0
	27	52	2000.762	145.0144	-0.7675771	1	145.0164	-0.30327	-1.669941E-006	0.0001166	10	0.0006908	0.100141	0
	28	53	1580.669	145.0699	-0.6627792	1	145.0714	-0.2617647	-1.626734E-006	0.0001168	10	0.0006897	0.100035	0
	29	55	1253.634	145.1174	-0.5836416	1	145.1186	-0.2304342	-1.627028E-006	0.0001177	10	0.0006893	0.1000176	0
	30	57	1000.702	145.1659	-0.5248073	1	145.1668	-0.2071362	-1.641306E-006	0.0001187	10	0.000689	0.1000188	0
	31	59	790.0281	145.2103	-0.4743317	1	145.2111	-0.1871569	-1.693894E-006	0.0001174	10	0.0006886	0.0999807	0
	32	60	628.811	145.254	-0.440177	1	145.2547	-0.1736283	-1.772194E-006	0.0001167	10	0.0006885	0.0999987	0
	33	62	502.2321	145.3123	-0.4190206	1	145.3129	-0.1652169	-1.814671E-006	0.000115	10	0.0006613	0.09544	0
	34	64	400.1524	145.3535	-0.3896052	1	145.354	-0.1535751	-1.909647E-006	0.0001142	10	0.0007094	0.1026345	0
	35	65	315.5048	145.4045	-0.3699571	1	145.405	-0.145779	-1.882375E-006	0.0001147	10	0.0006974	0.1010995	0
	36	67	252.0161	145.451	-0.3535225	1	145.4514	-0.1392587	-1.863609E-006	0.0001124	10	0.0006916	0.1003965	0
	37	69	200.3205	145.5018	-0.3365244	1	145.5022	-0.1325165	-1.956495E-006	0.000111	10	0.0006883	0.1000202	0
	38	70	158.0056	145.5568	-0.3252047	1	145.5572	-0.1280107	-1.923176E-006	0.0001114	10	0.0006853	0.0996746	0
	39	72	125.558	145.6095	-0.3106072	1	145.6098	-0.1222204	-1.874601E-006	0.0001141	10	0.0006811	0.0991302	0
	40	74	99.734	145.6578	-0.299089	1	145.6581	-0.1176492	-1.845594E-006	0.0001125	10	0.000672	0.0978578	0
	41	76	79.44915	145.7022	-0.2679811	1	145.7025	-0.1053804	-1.979732E-006	0.0001101	10	0.0007064	0.1029009	0
	42	77	62.91946	145.7471	-0.2657596	1	145.7474	-0.1044747	-1.958644E-006	0.0001088	10	0.0006863	0.1000135	0
	43	79	49.86702	145.7808	-0.2555916	1	145.781	-0.1004543	-1.878618E-006	0.0001111	10	0.0006862	0.1000261	0
	44	81	38.42213	145.8135	-0.2318095	1	145.8136	-0.0910869	-1.909843E-006	0.0001124	10	0.0006859	0.1000038	0
	45	83	31.25	145.8407	-0.2315954	1	145.8409	-0.0909858	-1.824299E-006	0.0001128	10	0.0006857	0.1000005	0
	46	85	24.93351	145.8748	-0.2223984	1	145.875	-0.0873522	-1.917848E-006	0.0001113	10	0.0006855	0.0999995	0
	47	86	20.03205	145.9058	-0.2082473	1	145.9059	-0.0817766	-1.904969E-006	0.0001102	10	0.0006854	0.0999994	0
	48	88	15.625	145.9377	-0.2024052	1	145.9379	-0.0794651	-1.857951E-006	0.0001113	10	0.0006852	0.1000004	0
	49	90	12.46675	145.9669	-0.1951036	1	145.967	-0.0765832	-1.922745E-006	0.0001121	10	0.0006851	0.0999992	0
	50	92	9.9734	146.0047	-0.1892454	1	146.0049	-0.0742644	-1.858342E-006	0.0001111	10	0.0006849	0.1	0
	51	94	7.971939	146.0349	-0.1845782	1	146.035	-0.072418	-1.805637E-006	0.0001125	10	0.0006848	0.0999996	0
	52	97	6.351626	146.059	-0.1808099	1	146.0591	-0.0709278	-1.745198E-006	0.0001129	10	0.0006847	0.1	0
	53	99	5.013369	146.0716	-0.1784901	1	146.0717	-0.0700117	-1.806784E-006	0.0001096	10	0.0006846	0.0999998	0
	54	102	3.985969	146.0786	-0.1749196	1	146.0787	-0.0686079	-1.734821E-006	0.0001131	10	0.0006846	0.0999998	0
	55	105	3.175813	146.0915	-0.1748871	1	146.0916	-0.0685891	-1.803147E-006	0.0001131	10	0.0006845	0.0999999	0
	56	108	2.516103	146.1253	-0.1526555	1	146.1253	-0.0598563	-1.765864E-006	0.0001148	10	0.0006593	0.0964875	0
	57	112	1.99553	146.1461	-0.1522372	1	146.1461	-0.0596838	-1.792445E-006	0.0001155	10	0.0006979	0.1020733	0
	58	116	1.587906	146.1965	-0.1583056	1	146.1966	-0.0620414	-1.80505E-006	0.0001161	10	0.0006896	0.1008569	0
	59	122	1.258052	146.245	-0.1612754	1	146.2451	-0.0631844	-1.820998E-006	0.0001154	10	0.0006862	0.1003664	0
	60	127	0.997765	146.2805	-0.1585124	1	146.2806	-0.0620868	-1.851255E-006	0.0001147	10	0.0006846	0.1001552	0
	61	133	0.7927448	146.3033	-0.1585622	1	146.3034	-0.0620966	-1.869283E-006	0.0001153	10	0.0006839	0.1000677	0
	62	140	0.6290258	146.3007	-0.1538942	1	146.3008	-0.0602696	-1.850487E-006	0.0001155	10	0.0006837	0.1000309	0
	63	149	0.4988825	146.2855	-0.1491695	1	146.2856	-0.0584254	-1.863289E-006	0.0001153	10	0.0006837	0.1000166	0
	64	159	0.3985969	146.2689	-0.1427123	1	146.2689	-0.0559026	-1.813829E-006	0.0001158	10	0.0006837	0.1000079	0
