EXPLAIN
TAG	EISPOT
TITLE	LABEL	Potentiostatic EIS	Test Identifier
DATE	LABEL	2025/12/23	Date
TIME	LABEL	20:51:42	Time
NOTES	NOTES	1	Notes...
	
PSTAT	PSTAT	IFC1000-11123	Potentiostat
VDC	POTEN	0.00000E+000	T	DC Voltage (V)
FREQINIT	QUANT	1.00000E+006	Initial Freq. (Hz)
FREQFINAL	QUANT	5.00000E-001	Final Freq. (Hz)
PTSPERDEC	QUANT	1.00000E+001	Points/decade
VAC	QUANT	1.00000E+002	AC Voltage (mV rms)
AREA	QUANT	7.85000E-001	Sample Area (cm^2)
SPEED	SELECTOR	1	Optimize for:
DRIFTCOR	SELECTOR	0	Drift Correction
THD	SELECTOR	0	THD
ZGUESS	QUANT	1.00000E+002	Estimated Z (ohms)
EOC	QUANT	-1.47147E-007	Open Circuit (V)
SEQUENCER	TOGGLE	TRUE	Run as Sequence
PSTATMODEL	IQUANT	48	Pstat Model
PSTATSECTION	LABEL	IFC1000-11123	Pstat Section
PSTATSERIALNO	LABEL	11123	Pstat Serial Number
CTRLMODE	IQUANT	1	Control Mode
ELECTROMETER	IQUANT	0	RE=0 or CS=1
IESTAB	IQUANT	0	I/E Stability
CASPEED	IQUANT	3	Control Amp Speed
CONVENTION	IQUANT	1	Current Convention
ICHRANGE	IQUANT	2	Ich Range
ICHRANGEMODE	TOGGLE	F	Ich Auto Range
ICHOFFSETENABLE	TOGGLE	T	Ich Offset Enable
ICHOFFSET	QUANT	0	Ich Offset (V)
ICHFILTER	IQUANT	4	Ich Filter
VCHRANGE	IQUANT	2	Vch Range
VCHRANGEMODE	TOGGLE	F	Vch Auto Range
VCHOFFSETENABLE	TOGGLE	T	Vch Offset Enable
VCHOFFSET	QUANT	0	Vch Offset (V)
VCHFILTER	IQUANT	4	Vch Filter
IERANGELOWERLIMIT	IQUANT	4	I/E Range Lower Limit
IERANGEMODE	TOGGLE	F	I/E AutoRange
IERANGE	IQUANT	11	I/E Range
ACHSELECT	IQUANT	0	Ach Select
ACHRANGE	IQUANT	2	Ach Range
ACHOFFSETENABLE	TOGGLE	F	Ach Offset Enable
ACHOFFSET	QUANT	0	Ach Offset (V)
ACHFILTER	IQUANT	1	Ach Filter
SENSECABLEID	IQUANT	14	Sense Cable ID
PWRCABLEID	IQUANT	14	Power Cable ID
DCCALDATE	LABEL	5/23/2025	DC Calibration Date
ACCALDATE	LABEL	4/29/2023	AC Calibration Date
FRAMEWORKVERSION	LABEL	7.10.0	Framework Version
INSTRUMENTVERSION	LABEL	4.72	Instrument Version
COMMVERSION	LABEL	3.10	Communications Version
CPUPLDVERSION	LABEL	1.10	CPU PLD Version
CTRLPLDVERSION	LABEL	0.00	CTRL PLD Version
PSTATPLDVERSION	LABEL	0.00	PSTAT PLD Version
ZCURVE	TABLE
	Pt	Time	Freq	Zreal	Zimag	Zsig	Zmod	Zphz	Idc	Vdc	IERange	Imod	Vmod	Temp
	#	s	Hz	ohm	ohm	V	ohm	°	A	V	#	A	V	°C
	0	3	1000020	121.5637	-2.556592	1	121.5906	-1.204803	-1.175491E-005	0.0002691	10	0.0008565	0.0999904	0
	1	5	794355.5	122.5811	-3.712365	1	122.6373	-1.73467	-1.155615E-005	0.0002739	10	0.0012667	0.1506861	0
	2	7	630996.1	123.7117	-4.708046	1	123.8012	-2.179431	-1.194581E-005	0.000273	10	0.0011238	0.1359673	0
	3	9	501269.5	124.9202	-5.588371	1	125.0451	-2.56145	-1.228616E-005	0.0002525	10	0.0010424	0.1280613	0
	4	11	398144.5	126.2104	-6.314758	1	126.3682	-2.864325	-1.223142E-005	0.0002516	10	0.0009874	0.123047	0
	5	12	316230.5	127.572	-6.90962	1	127.7589	-3.100255	-1.253314E-005	0.0002379	10	0.0009426	0.1190666	0
	6	14	251191.4	128.9879	-7.326697	1	129.1959	-3.250988	-1.252662E-005	0.0002326	10	0.000895	0.1145659	0
	7	16	199628.9	130.4748	-7.590161	1	130.6954	-3.329338	-1.251424E-005	0.0002125	10	0.000857	0.1111588	0
	8	18	158496.1	131.9561	-7.704491	1	132.1809	-3.341521	-1.260728E-005	0.0002209	10	0.0008253	0.1084289	0
	9	20	125918	133.4297	-7.667255	1	133.6499	-3.288763	-1.276122E-005	0.000215	10	0.0007941	0.105624	0
	10	21	100019.5	134.8569	-7.461912	1	135.0632	-3.167064	-1.564938E-006	0.000098	10	0.0007508	0.1009943	0
	11	23	79511.72	136.1571	-7.138314	1	136.3441	-3.001101	-1.539702E-006	0.0000964	10	0.0007664	0.1042209	0
	12	25	63105.47	137.396	-6.679102	1	137.5583	-2.783074	-1.584644E-006	9.184971E-005	10	0.0007446	0.102249	0
	13	27	50214.84	138.4866	-6.131965	1	138.6223	-2.535309	-1.777604E-006	9.063724E-005	10	0.0007308	0.1011985	0
	14	29	39902.34	139.4476	-5.516509	1	139.5566	-2.265425	-1.725392E-006	9.088818E-005	10	0.0007218	0.1006655	0
	15	30	31699.22	140.2355	-4.874996	1	140.3203	-1.990966	-1.775786E-006	8.883158E-005	10	0.0007156	0.1003608	0
	16	32	25136.72	140.8852	-4.243462	1	140.9491	-1.725227	-1.710464E-006	8.905196E-005	10	0.0007114	0.1002358	0
	17	34	19980.47	141.4021	-3.641697	1	141.449	-1.475281	-1.580928E-006	8.821033E-005	10	0.0007079	0.1001072	0
	18	36	15878.91	141.8015	-3.091712	1	141.8352	-1.249028	-1.575086E-006	8.641338E-005	10	0.0007057	0.1000849	0
	19	37	12597.66	142.1167	-2.598701	1	142.1405	-1.047575	-1.636454E-006	9.001046E-005	10	0.0007038	0.1000353	0
	20	39	10019.53	142.3359	-2.174699	1	142.3525	-0.8753334	-1.508781E-006	8.866069E-005	10	0.0007027	0.1000276	0
	21	41	7928.241	142.5145	-1.809534	1	142.5259	-0.7274569	4.062385E-007	0.0001442	10	0.0007017	0.100012	0
	22	43	6307.871	142.664	-1.504712	1	142.672	-0.60429	4.608845E-007	0.0001419	10	0.0007011	0.1000188	0
	23	45	5034.722	142.7609	-1.259102	1	142.7664	-0.5053163	-1.072149E-006	0.0001172	10	0.0006815	0.0970519	0
	24	46	3993.056	142.8385	-1.045534	1	142.8423	-0.4193801	-1.196697E-006	0.0001171	10	0.0007134	0.1017542	0
	25	48	3144.055	142.906	-0.8653276	1	142.9086	-0.3469345	-1.197127E-006	0.0001166	10	0.0007055	0.100734	0
	26	50	2519.531	142.9621	-0.7297949	1	142.9639	-0.2924818	-1.186965E-006	0.0001166	10	0.0007019	0.1002948	0
	27	52	2000.762	143.0067	-0.6127192	1	143.008	-0.2454851	-1.154728E-006	0.0001154	10	0.0007002	0.1001033	0
	28	53	1580.669	143.0358	-0.5176053	1	143.0367	-0.2073361	-1.128858E-006	0.000116	10	0.0006997	0.1000589	0
	29	55	1253.634	143.0628	-0.4428044	1	143.0634	-0.1773399	-1.121653E-006	0.0001167	10	0.0006992	0.1000114	0
	30	57	1000.702	143.0921	-0.3854523	1	143.0927	-0.1543393	-1.088049E-006	0.0001172	10	0.000699	0.100013	0
	31	59	790.0281	143.1194	-0.3360302	1	143.1198	-0.1345246	-1.123177E-006	0.0001167	10	0.0006986	0.0999732	0
	32	60	628.811	143.142	-0.2960249	1	143.1423	-0.1184904	-1.153483E-006	0.0001163	10	0.0006986	0.0999935	0
	33	62	502.2321	143.1749	-0.2738862	1	143.1751	-0.1096038	-1.202604E-006	0.0001154	10	0.0006711	0.0954326	0
	34	64	400.1524	143.1934	-0.2443112	1	143.1936	-0.0977558	-1.200747E-006	0.0001159	10	0.0007202	0.1026561	0
	35	66	315.5048	143.199	-0.2250347	1	143.1992	-0.0900393	-1.300216E-006	0.0001146	10	0.0007083	0.1011206	0
	36	68	252.0161	143.2083	-0.2082637	1	143.2085	-0.0833235	-1.331172E-006	0.0001118	10	0.0007023	0.100386	0
	37	69	200.3205	143.2204	-0.1978714	1	143.2205	-0.0791591	-1.387977E-006	0.0001121	10	0.0006992	0.1000103	0
	38	71	158.0056	143.2367	-0.190277	1	143.2368	-0.0761122	-1.417643E-006	0.000112	10	0.0006965	0.0996906	0
	39	73	125.558	143.2486	-0.1835383	1	143.2487	-0.0734106	-1.379736E-006	0.000117	10	0.0006922	0.0991137	0
	40	74	99.734	143.27	-0.1788768	1	143.2701	-0.0715355	-1.501604E-006	0.0001127	10	0.0006833	0.0978667	0
	41	76	79.44915	143.2786	-0.1622688	1	143.2787	-0.0648898	-1.575387E-006	0.000111	10	0.0007184	0.1029071	0
	42	78	62.91946	143.2984	-0.1751665	1	143.2986	-0.0700377	-1.659171E-006	0.0001104	10	0.000698	0.1000099	0
	43	80	49.86702	143.3198	-0.1719383	1	143.3199	-0.0687367	-1.592399E-006	0.0001099	10	0.000698	0.100028	0
	44	81	38.42213	143.3356	-0.1613007	1	143.3357	-0.064477	-1.58035E-006	0.000113	10	0.0006977	0.1000038	0
	45	83	31.25	143.3522	-0.1716571	1	143.3524	-0.0686088	-1.602021E-006	0.0001122	10	0.0006976	0.1000017	0
	46	85	24.93351	143.3726	-0.1740164	1	143.3727	-0.0695419	-1.618144E-006	0.0001128	10	0.0006975	0.0999983	0
	47	87	20.03205	143.3936	-0.1713572	1	143.3937	-0.0684692	-1.719951E-006	0.0001091	10	0.0006974	0.0999998	0
	48	89	15.625	143.4182	-0.1734187	1	143.4183	-0.069281	-1.61861E-006	0.0001116	10	0.0006973	0.0999997	0
	49	91	12.46675	143.4414	-0.172991	1	143.4415	-0.069099	-1.707016E-006	0.0001127	10	0.0006972	0.0999999	0
	50	93	9.9734	143.46	-0.1754966	1	143.4601	-0.0700907	-1.686416E-006	0.0001111	10	0.0006971	0.1000003	0
	51	95	7.971939	143.4713	-0.178521	1	143.4714	-0.071293	-1.645767E-006	0.0001122	10	0.000697	0.0999997	0
	52	97	6.351626	143.4874	-0.18072	1	143.4875	-0.0721631	-1.683077E-006	0.0001119	10	0.0006969	0.0999997	0
	53	100	5.013369	143.5062	-0.1831917	1	143.5064	-0.0731404	-1.728611E-006	0.0001085	10	0.0006968	0.1	0
	54	103	3.985969	143.5124	-0.1848524	1	143.5125	-0.0738003	-1.701844E-006	0.0001121	10	0.0006968	0.0999996	0
	55	106	3.175813	143.5307	-0.1852526	1	143.5308	-0.0739506	-1.785454E-006	0.0001109	10	0.0006967	0.0999996	0
	56	109	2.516103	143.5549	-0.1691172	1	143.555	-0.0674982	-1.758004E-006	0.0001122	10	0.0006711	0.0964924	0
	57	113	1.99553	143.5665	-0.1680287	1	143.5666	-0.0670583	-1.706243E-006	0.0001136	10	0.0007104	0.1020729	0
	58	117	1.587906	143.5968	-0.170518	1	143.5969	-0.0680374	-1.761204E-006	0.000113	10	0.0007021	0.1008559	0
	59	122	1.258052	143.6009	-0.169306	1	143.601	-0.0675519	-1.652456E-006	0.0001134	10	0.0006988	0.1003658	0
	60	128	0.997765	143.614	-0.1673545	1	143.6141	-0.0667672	-1.618925E-006	0.0001146	10	0.0006973	0.1001543	0
	61	134	0.7927448	143.6226	-0.1646404	1	143.6227	-0.0656804	-1.60941E-006	0.0001134	10	0.0006967	0.1000679	0
	62	141	0.6290258	143.6349	-0.1603413	1	143.635	-0.0639599	-1.562395E-006	0.0001121	10	0.0006964	0.1000318	0
	63	150	0.4988825	143.6161	-0.1533454	1	143.6162	-0.0611773	-1.566996E-006	0.0001123	10	0.0006964	0.1000151	0
	64	160	0.3985969	143.569	-0.1461006	1	143.5691	-0.058306	-1.510512E-006	0.0001123	10	0.0006966	0.1000081	0
